"Channel1","Channel2","Channel3","Channel4","Channel5","Channel6","Channel7","Channel8","Class","Label"
254,200,253,114,244,118,254,156,0,"1"
183,202,250,114,253,82,232,202,0,"1"
255,114,103,206,255,118,237,86,0,"1"
227,114,227,238,54,82,251,202,0,"1"
251,118,227,247,190,47,255,82,0,"1"
242,72,255,118,244,86,242,216,0,"1"
94,147,255,86,231,86,227,198,0,"1"
242,200,250,118,250,86,250,82,0,"1"
243,118,254,114,119,234,250,82,0,"1"
182,254,82,155,220,111,119,114,0,"1"
250,118,122,254,82,254,118,243,0,"1"
106,250,82,250,90,254,114,175,0,"1"
222,255,118,247,86,250,114,247,0,"1"
254,86,250,200,143,158,114,244,0,"1"
88,94,78,255,82,227,82,251,0,"1"
82,254,72,254,114,115,254,200,0,"1"
251,82,246,72,246,118,251,86,0,"1"
183,220,254,118,236,86,231,82,0,"1"
227,114,246,82,247,118,227,150,0,"1"
171,114,243,88,250,114,242,202,0,"1"
255,118,247,114,255,86,243,114,0,"1"
250,82,154,215,254,114,246,202,0,"1"
250,86,250,118,250,202,31,228,0,"1"
114,227,114,250,202,250,82,250,0,"1"
82,250,218,222,94,255,82,231,0,"1"
118,250,90,251,118,231,118,239,0,"1"
114,91,133,255,86,242,114,231,0,"1"
216,251,86,254,114,227,192,246,0,"1"
254,114,242,114,244,250,250,82,0,"1"
250,220,250,186,254,126,250,122,0,"1"
254,82,254,246,246,82,191,31,1,"1"
82,247,82,251,82,247,86,231,1,"1"
118,247,82,255,86,231,238,254,1,"1"
82,226,204,254,216,251,118,230,1,"1"
82,246,86,226,82,252,82,250,1,"1"
86,226,118,254,118,254,168,255,1,"1"
86,244,72,255,41,114,250,118,1,"1"
230,118,250,90,254,114,250,88,1,"1"
254,41,42,247,255,86,246,86,1,"1"
254,114,255,118,226,82,251,118,1,"1"
243,114,250,206,249,86,255,206,1,"1"
250,118,226,82,250,114,254,86,1,"1"
246,114,254,86,116,105,251,118,1,"1"
250,202,126,232,255,200,254,118,1,"1"
246,90,254,82,246,114,255,200,1,"1"
126,57,250,114,231,114,247,78,1,"1"
249,86,254,202,254,82,243,114,1,"1"
241,167,254,74,243,218,241,114,1,"1"
241,118,243,82,250,200,254,114,1,"1"
241,118,254,82,255,82,241,86,1,"1"
226,232,254,118,255,86,255,90,1,"1"
254,218,126,102,114,226,114,226,1,"1"
90,249,114,227,86,234,118,227,1,"1"
202,255,114,254,82,231,114,231,1,"1"
236,187,184,250,114,227,118,255,1,"1"
114,82,254,118,250,114,246,74,1,"1"
159,78,255,74,250,82,250,206,1,"1"
240,114,254,86,254,82,254,118,1,"1"
251,114,243,82,126,200,254,82,1,"1"
225,114,247,198,225,114,226,216,1,"1"
254,86,250,118,254,82,251,118,2,"1"
251,86,245,86,250,88,254,82,2,"1"
118,51,255,114,250,196,250,82,2,"1"
252,118,227,118,254,86,245,118,2,"1"
103,94,126,222,218,246,114,250,2,"1"
94,247,82,227,72,254,114,227,2,"1"
82,254,118,254,118,254,224,250,2,"1"
86,126,235,155,213,218,247,82,2,"1"
227,114,244,114,250,114,254,82,2,"1"
254,88,52,234,254,114,231,110,2,"1"
244,86,231,118,243,118,247,200,2,"1"
247,118,245,86,239,90,182,203,2,"1"
182,103,27,118,239,118,254,72,2,"1"
254,114,254,90,245,255,118,250,2,"1"
74,245,114,245,114,254,218,53,2,"1"
187,250,82,254,82,250,200,245,2,"1"
82,255,82,245,82,246,86,231,2,"1"
114,252,250,52,170,254,86,232,2,"1"
118,255,82,174,123,255,118,245,2,"1"
118,254,118,252,234,118,182,74,2,"1"
254,114,243,82,245,82,254,86,2,"1"
238,86,250,86,226,216,241,90,2,"1"
115,38,122,231,90,255,126,226,2,"1"
94,230,94,254,126,226,122,242,2,"1"
94,226,122,242,72,92,38,122,2,"1"
250,90,250,122,250,126,254,94,2,"1"
246,122,247,74,255,122,125,166,2,"1"
126,254,90,255,90,234,122,238,2,"1"
90,238,94,254,122,254,90,255,2,"1"
122,243,128,122,234,251,90,235,2,"1"
254,90,244,200,245,118,244,82,3,"1"
170,66,253,118,247,130,247,86,3,"1"
255,82,227,86,225,118,250,216,3,"1"
251,72,155,154,255,114,31,219,3,"1"
254,82,227,82,250,118,255,114,3,"1"
251,86,238,118,247,206,251,82,3,"1"
255,118,54,58,250,82,249,118,3,"1"
242,118,249,82,254,94,244,122,3,"1"
243,122,247,88,246,94,251,122,3,"1"
250,216,247,126,247,94,254,90,3,"1"
254,122,254,94,247,88,245,122,3,"1"
238,122,243,90,234,165,250,126,3,"1"
243,126,247,122,234,94,238,122,3,"1"
243,250,250,90,243,122,251,90,3,"1"
245,118,240,118,251,196,245,118,3,"1"
253,118,234,200,122,83,244,114,3,"1"
251,216,253,204,250,90,239,130,3,"1"
249,126,243,122,240,90,250,94,3,"1"
251,122,255,94,246,122,247,126,3,"1"
235,222,58,111,94,239,114,239,3,"1"
114,229,118,243,72,255,202,253,3,"1"
86,255,118,122,41,254,114,247,3,"1"
82,227,86,239,86,126,126,255,3,"1"
122,250,94,244,126,238,220,122,3,"1"
232,254,90,247,94,238,90,250,3,"1"
162,251,90,243,94,227,90,255,3,"1"
94,243,94,238,74,251,94,247,3,"1"
126,254,126,247,90,247,90,238,3,"1"
222,247,122,247,92,117,41,255,3,"1"
90,234,94,240,220,245,122,244,3,"1"
254,210,249,94,115,40,215,36,4,"1"
214,255,242,255,210,121,104,255,4,"1"
242,249,246,239,74,122,83,153,4,"1"
197,246,250,222,250,126,206,248,4,"1"
246,255,210,254,210,255,165,88,4,"1"
244,207,74,242,255,214,228,246,4,"1"
230,246,226,246,254,78,241,242,4,"1"
250,214,255,210,226,162,255,75,4,"1"
254,210,239,254,254,210,254,210,4,"1"
234,242,252,246,238,210,224,246,4,"1"
251,210,126,82,191,185,210,242,4,"1"
222,254,242,254,214,252,204,254,4,"1"
246,246,94,254,169,248,210,126,4,"1"
86,255,246,242,242,254,214,238,4,"1"
246,238,210,127,233,255,214,234,4,"1"
242,254,210,234,166,255,242,234,4,"1"
214,254,246,127,206,254,242,254,4,"1"
210,255,128,246,206,254,214,246,4,"1"
78,248,242,254,220,254,214,238,4,"1"
214,245,210,248,214,250,78,245,4,"1"
242,183,114,175,238,242,234,246,4,"1"
235,242,239,246,252,214,243,214,4,"1"
186,168,248,204,250,246,123,94,4,"1"
255,214,242,214,255,204,253,210,4,"1"
250,214,234,74,250,214,238,214,4,"1"
238,78,122,114,255,250,126,56,4,"1"
248,254,254,202,255,254,250,218,4,"1"
254,94,254,82,250,104,57,220,4,"1"
114,255,114,239,114,254,82,254,4,"1"
118,251,94,250,218,74,102,118,4,"1"
254,114,227,121,250,204,250,82,5,"1"
235,82,246,206,250,78,126,78,5,"1"
30,238,82,230,118,253,118,231,5,"1"
114,250,82,226,82,235,226,249,5,"1"
82,254,206,127,110,255,114,254,5,"1"
211,254,86,253,222,126,222,11,5,"1"
167,118,242,92,252,118,250,118,5,"1"
242,220,254,82,234,104,250,118,5,"1"
246,106,112,115,251,118,237,222,5,"1"
253,114,252,86,31,206,255,78,5,"1"
254,86,234,94,119,120,155,41,5,"1"
255,118,252,118,234,82,254,118,5,"1"
255,92,245,119,250,204,247,82,5,"1"
89,206,95,87,86,235,118,251,5,"1"
118,235,94,254,82,234,250,254,5,"1"
118,234,114,243,122,245,184,254,5,"1"
118,251,86,244,86,250,94,253,5,"1"
14,171,90,253,126,254,106,244,5,"1"
72,245,90,243,126,239,122,250,5,"1"
90,255,94,242,88,245,90,239,5,"1"
122,127,232,251,126,239,110,234,5,"1"
90,255,200,255,126,253,126,243,5,"1"
200,250,126,226,90,255,126,238,5,"1"
132,251,122,245,82,254,204,251,5,"1"
86,237,114,116,250,23,111,255,5,"1"
118,235,86,53,169,143,242,82,5,"1"
231,86,226,118,230,220,254,57,5,"1"
254,114,235,82,245,13,206,72,5,"1"
86,239,118,251,94,254,114,252,5,"1"
118,246,206,247,114,254,76,59,5,"1"
254,82,243,114,235,82,250,82,6,"1"
251,86,243,130,251,206,247,118,6,"1"
238,90,255,114,255,86,243,86,6,"1"
235,86,244,114,235,94,122,35,6,"1"
255,118,255,222,62,167,255,82,6,"1"
254,114,250,92,119,107,249,114,6,"1"
228,114,89,86,62,195,255,114,6,"1"
235,204,83,215,207,247,118,244,6,"1"
86,239,82,250,118,50,106,255,6,"1"
82,117,118,159,28,254,92,255,6,"1"
86,255,86,249,92,249,118,234,6,"1"
230,251,94,249,82,255,82,246,6,"1"
106,127,171,249,114,235,228,251,6,"1"
114,255,114,119,175,248,86,251,6,"1"
118,255,118,240,250,254,86,243,6,"1"
122,245,82,254,82,238,106,182,6,"1"
86,254,114,251,114,250,82,255,6,"1"
82,121,202,31,37,86,82,231,6,"1"
114,251,114,179,42,255,82,227,6,"1"
86,243,82,230,94,241,82,255,6,"1"
82,226,82,251,78,254,43,153,6,"1"
82,255,118,255,118,227,94,254,6,"1"
86,249,118,251,82,231,82,251,6,"1"
82,226,114,225,94,243,114,255,6,"1"
206,115,134,248,114,255,114,253,6,"1"
204,253,204,189,198,248,86,230,6,"1"
118,242,196,251,82,47,250,204,6,"1"
248,220,255,78,241,114,231,222,6,"1"
254,76,242,86,255,86,255,126,6,"1"
57,142,204,254,118,227,114,250,6,"1"
254,86,251,122,94,206,255,82,7,"1"
251,114,245,114,251,230,255,118,7,"1"
249,86,226,200,113,122,255,86,7,"1"
251,72,250,216,250,86,226,82,7,"1"
96,126,255,86,231,86,251,86,7,"1"
250,72,249,82,231,90,250,86,7,"1"
231,88,153,71,255,118,247,118,7,"1"
231,118,251,118,250,90,249,118,7,"1"
227,226,228,118,246,86,231,245,7,"1"
255,118,255,114,126,202,255,86,7,"1"
119,222,243,118,250,114,254,118,7,"1"
251,86,251,224,250,82,249,82,7,"1"
230,118,227,86,227,86,122,254,7,"1"
250,86,227,82,227,86,227,118,7,"1"
118,230,72,249,118,255,86,247,7,"1"
254,59,198,254,118,250,82,250,7,"1"
114,227,88,249,82,231,82,231,7,"1"
222,59,66,254,202,250,86,251,7,"1"
118,250,86,255,86,230,86,255,7,"1"
118,231,230,253,82,250,78,249,7,"1"
72,250,114,231,114,249,114,250,7,"1"
114,243,86,225,114,245,126,251,7,"1"
82,231,45,114,243,82,254,118,7,"1"
254,118,231,218,248,118,231,86,7,"1"
103,254,86,231,110,250,118,231,7,"1"
86,247,82,245,82,250,82,227,7,"1"
86,226,230,250,86,187,111,47,7,"1"
94,72,248,86,254,118,116,88,7,"1"
250,86,243,200,248,88,88,157,7,"1"
254,216,253,250,248,114,227,88,7,"1"
254,122,125,74,254,90,252,202,8,"1"
255,126,243,216,250,126,250,82,8,"1"
243,82,230,88,250,11,165,254,8,"1"
126,243,134,247,200,248,122,246,8,"1"
200,255,86,233,88,248,202,125,8,"1"
100,90,125,11,255,126,235,248,8,"1"
122,231,88,250,216,253,90,254,8,"1"
90,226,86,250,86,190,139,23,8,"1"
222,94,127,40,255,82,245,82,8,"1"
239,118,253,82,225,216,56,105,8,"1"
231,238,126,251,122,235,82,234,8,"1"
118,250,123,249,218,152,45,255,8,"1"
90,243,90,252,220,25,122,223,8,"1"
78,122,243,126,250,126,247,206,8,"1"
31,239,254,94,62,105,57,231,8,"1"
252,94,254,206,240,90,61,56,8,"1"
249,118,254,76,254,82,231,82,8,"1"
127,163,63,76,79,142,122,253,8,"1"
40,249,122,228,90,247,78,254,8,"1"
126,254,92,254,180,122,62,125,8,"1"
255,94,253,222,252,90,254,90,8,"1"
253,255,94,230,90,250,57,254,8,"1"
90,255,94,122,94,250,122,242,8,"1"
254,122,238,126,254,94,248,118,8,"1"
246,220,243,118,254,118,228,82,8,"1"
126,104,255,86,241,86,247,78,8,"1"
241,94,235,106,250,94,246,78,8,"1"
117,255,94,250,249,120,90,255,8,"1"
90,246,122,246,130,254,122,243,8,"1"
220,250,239,242,94,231,94,255,8,"1"
254,118,238,86,120,219,251,82,9,"1"
255,118,227,202,250,82,242,78,9,"1"
246,86,250,114,231,82,246,150,9,"1"
82,227,86,242,88,250,118,235,9,"1"
114,244,72,253,82,251,82,235,9,"1"
74,122,167,255,118,250,118,254,9,"1"
90,250,114,250,82,247,82,244,9,"1"
86,244,82,242,118,242,94,250,9,"1"
223,254,216,247,72,250,82,250,9,"1"
82,246,202,250,86,238,216,255,9,"1"
90,250,2,251,200,250,82,234,9,"1"
114,251,140,246,118,242,118,122,9,"1"
249,250,114,242,172,246,88,254,9,"1"
216,250,118,254,86,246,86,251,9,"1"
118,122,90,250,82,235,118,58,9,"1"
169,62,6,82,242,82,250,86,9,"1"
246,86,251,82,239,114,235,82,9,"1"
249,114,123,216,250,165,255,86,9,"1"
239,118,235,86,243,86,143,182,9,"1"
82,235,114,235,140,30,222,255,9,"1"
118,250,72,251,200,250,118,243,9,"1"
72,250,74,250,82,246,86,238,9,"1"
106,253,114,117,219,86,244,114,9,"1"
250,114,250,82,242,88,250,41,9,"1"
250,114,253,114,234,216,122,45,9,"1"
58,54,254,114,234,172,250,88,9,"1"
250,114,250,82,246,82,122,7,9,"1"
254,114,250,169,31,210,86,250,9,"1"
114,239,114,227,82,251,114,236,9,"1"
82,249,82,246,216,250,198,251,9,"1"
254,242,239,246,114,138,254,187,0,"2"
255,138,255,10,91,221,252,242,0,"2"
252,8,243,242,247,242,106,179,0,"2"
15,76,246,253,242,242,230,246,0,"2"
242,234,230,242,214,226,242,238,0,"2"
24,243,170,250,246,252,242,250,0,"2"
136,254,26,254,152,63,95,91,0,"2"
55,24,251,214,117,251,254,210,0,"2"
242,24,255,214,230,170,251,214,0,"2"
226,246,250,194,250,242,238,234,0,"2"
251,210,106,250,254,242,234,132,0,"2"
117,158,251,214,254,10,183,187,0,"2"
30,12,254,138,254,246,170,247,0,"2"
254,214,123,247,255,210,254,187,0,"2"
255,246,245,210,242,192,63,62,0,"2"
207,198,210,226,138,245,214,226,0,"2"
210,159,127,242,227,214,242,214,0,"2"
102,74,255,246,231,24,255,214,0,"2"
227,160,121,251,251,214,226,154,0,"2"
255,214,227,162,254,10,250,214,0,"2"
250,246,242,8,250,210,242,242,0,"2"
234,210,122,90,206,29,246,251,0,"2"
214,250,214,250,246,242,122,122,0,"2"
115,254,246,234,152,245,51,251,0,"2"
214,242,242,242,138,250,210,234,0,"2"
210,234,166,123,251,254,246,244,0,"2"
246,113,186,251,246,250,107,251,0,"2"
246,235,210,247,246,254,210,242,0,"2"
210,234,242,125,107,59,173,255,0,"2"
246,250,242,243,210,243,8,255,0,"2"
254,254,248,250,244,138,117,106,1,"2"
249,222,252,254,255,222,117,6,1,"2"
136,245,254,234,254,234,226,245,1,"2"
218,254,250,235,254,246,202,249,1,"2"
222,246,222,250,42,249,254,242,1,"2"
26,250,10,122,247,249,222,235,1,"2"
222,242,234,250,250,246,218,226,1,"2"
218,234,10,143,119,222,250,222,1,"2"
241,222,120,43,248,254,226,222,1,"2"
246,244,250,218,246,218,242,250,1,"2"
242,154,250,103,218,242,218,226,1,"2"
26,250,38,218,244,196,249,136,1,"2"
250,8,248,250,230,250,252,250,1,"2"
254,152,126,251,56,246,254,255,1,"2"
222,234,218,252,250,246,250,126,1,"2"
167,8,126,186,152,206,250,254,1,"2"
250,242,218,247,26,254,170,254,1,"2"
138,254,218,254,250,235,72,218,1,"2"
239,196,158,247,254,245,136,254,1,"2"
254,251,222,231,250,115,106,249,1,"2"
250,246,26,254,254,242,122,255,1,"2"
254,246,238,254,250,254,218,227,1,"2"
250,230,254,179,234,254,254,254,1,"2"
218,235,162,243,218,239,250,246,1,"2"
250,230,210,60,123,249,250,250,1,"2"
235,249,250,243,250,227,94,120,1,"2"
95,254,250,252,222,242,26,254,1,"2"
222,230,162,246,218,239,152,245,1,"2"
250,62,83,222,242,26,245,102,1,"2"
127,90,152,189,142,115,254,239,1,"2"
40,127,202,255,202,254,90,253,2,"2"
86,251,86,234,114,227,114,251,2,"2"
118,248,115,255,82,246,218,92,2,"2"
200,254,86,242,118,248,118,235,2,"2"
114,248,118,230,202,218,202,222,2,"2"
125,86,230,86,226,202,248,114,2,"2"
246,118,245,114,242,86,242,82,2,"2"
242,234,255,200,158,133,255,86,2,"2"
246,86,234,86,252,86,231,86,2,"2"
231,118,246,72,248,86,255,72,2,"2"
119,249,255,82,238,114,246,118,2,"2"
245,114,227,114,230,82,239,82,2,"2"
230,162,241,86,246,90,241,118,2,"2"
115,202,249,86,249,114,247,82,2,"2"
243,114,241,114,242,116,57,123,2,"2"
255,218,252,118,242,88,245,82,2,"2"
118,242,114,246,74,247,90,245,2,"2"
82,235,74,62,252,114,253,118,2,"2"
242,74,251,82,250,218,63,18,2,"2"
118,242,216,245,118,238,88,249,2,"2"
86,126,120,255,118,234,86,239,2,"2"
86,242,114,239,202,255,86,234,2,"2"
88,62,184,111,243,114,255,82,2,"2"
249,114,243,114,95,10,114,253,2,"2"
88,255,86,235,86,235,106,254,2,"2"
118,255,86,252,86,254,86,253,2,"2"
164,63,78,254,90,254,86,247,2,"2"
82,247,134,248,118,235,118,253,2,"2"
86,235,86,247,134,248,118,239,2,"2"
86,248,118,239,102,229,82,250,2,"2"
254,118,230,132,249,218,254,114,3,"2"
251,114,226,86,249,82,234,132,3,"2"
245,40,254,118,247,118,234,200,3,"2"
247,82,238,132,245,118,227,90,3,"2"
117,142,255,114,247,82,247,114,3,"2"
242,114,243,118,243,86,110,206,3,"2"
127,165,142,2,118,255,82,252,3,"2"
82,244,114,247,82,230,114,238,3,"2"
72,250,41,254,118,238,222,255,3,"2"
133,254,114,239,82,250,118,250,3,"2"
86,250,183,206,58,88,250,86,3,"2"
122,233,248,82,246,94,250,82,3,"2"
255,82,235,222,122,169,254,114,3,"2"
235,114,235,40,248,86,248,118,3,"2"
250,40,254,90,57,87,254,86,3,"2"
235,114,250,40,121,115,198,91,3,"2"
114,251,118,239,206,151,179,114,3,"2"
235,114,101,88,250,72,122,40,3,"2"
255,118,239,86,255,118,239,78,3,"2"
249,74,250,86,239,86,250,118,3,"2"
114,222,250,86,242,72,248,118,3,"2"
239,216,248,118,14,179,86,239,3,"2"
118,246,88,166,179,82,254,86,3,"2"
248,82,255,82,189,111,248,82,3,"2"
254,86,242,200,152,148,252,118,3,"2"
255,86,239,86,250,118,235,254,3,"2"
122,88,250,118,239,72,249,118,3,"2"
229,238,255,86,239,118,242,90,3,"2"
249,118,246,82,239,100,250,202,3,"2"
249,118,229,110,249,118,255,86,3,"2"
254,114,247,118,247,216,255,114,4,"2"
243,72,248,82,226,134,247,82,4,"2"
247,134,243,86,239,86,249,90,4,"2"
249,114,239,130,247,90,86,230,4,"2"
82,239,114,243,202,248,82,243,4,"2"
90,254,114,226,86,159,251,114,4,"2"
233,74,248,86,243,82,253,114,4,"2"
234,90,249,114,231,82,248,74,4,"2"
159,237,90,158,205,218,254,86,4,"2"
234,202,248,118,231,118,249,82,4,"2"
247,86,99,74,254,114,243,82,4,"2"
247,114,231,162,254,90,254,118,4,"2"
230,216,200,114,252,118,74,124,4,"2"
57,249,86,243,86,227,86,243,4,"2"
86,249,118,252,114,234,82,247,4,"2"
118,227,72,248,114,252,118,124,4,"2"
165,207,48,88,255,118,248,114,4,"2"
40,95,255,118,231,90,252,82,4,"2"
60,120,248,118,238,200,124,57,4,"2"
248,82,251,86,255,200,248,114,4,"2"
227,72,254,118,95,206,255,114,4,"2"
234,74,251,146,254,82,227,202,4,"2"
249,114,249,114,243,88,254,82,4,"2"
227,118,231,74,248,114,231,218,4,"2"
251,185,254,82,105,202,248,82,4,"2"
243,86,251,114,247,114,227,82,4,"2"
227,202,247,82,247,90,253,82,4,"2"
253,82,243,82,231,118,238,86,4,"2"
56,95,255,118,56,165,74,49,4,"2"
114,247,234,254,86,231,118,234,4,"2"
148,230,254,253,250,251,94,113,5,"2"
168,255,254,227,250,227,222,250,5,"2"
170,255,254,115,254,222,245,250,5,"2"
255,254,243,234,253,250,231,254,5,"2"
254,254,184,75,255,250,243,142,5,"2"
255,140,190,255,254,235,250,254,5,"2"
250,243,30,247,218,250,222,110,5,"2"
126,241,218,238,222,250,250,253,5,"2"
218,253,222,245,14,247,218,251,5,"2"
218,93,123,254,245,222,255,30,5,"2"
254,218,250,250,227,218,253,254,5,"2"
255,254,243,254,111,94,61,122,5,"2"
254,254,251,254,251,254,252,254,5,"2"
254,218,253,218,126,28,254,222,5,"2"
191,40,254,254,244,222,250,254,5,"2"
254,254,250,250,242,254,253,222,5,"2"
125,12,250,218,243,180,255,250,5,"2"
230,250,250,222,250,254,230,250,5,"2"
250,206,245,250,226,170,127,123,5,"2"
255,250,254,206,247,12,253,250,5,"2"
254,218,226,206,250,222,230,222,5,"2"
98,238,243,218,226,254,241,57,5,"2"
58,12,222,243,250,254,222,250,5,"2"
254,250,12,126,215,251,254,254,5,"2"
254,231,140,255,222,250,250,190,5,"2"
233,254,222,255,84,254,218,227,5,"2"
140,254,218,250,189,43,115,218,5,"2"
253,218,250,250,247,250,250,250,5,"2"
250,35,222,250,254,230,254,183,5,"2"
34,218,254,218,231,158,125,119,5,"2"
254,254,239,254,49,234,62,219,6,"2"
156,253,250,231,218,251,218,244,6,"2"
158,254,254,255,254,227,218,231,6,"2"
28,250,117,255,250,246,254,226,6,"2"
250,242,218,242,254,230,204,242,6,"2"
222,226,204,246,222,230,28,250,6,"2"
254,242,254,231,222,250,14,250,6,"2"
218,250,250,250,254,231,90,250,6,"2"
250,230,158,250,34,218,253,218,6,"2"
255,218,243,218,115,43,251,222,6,"2"
244,250,230,250,255,218,227,234,6,"2"
242,254,230,218,238,202,253,254,6,"2"
255,158,255,254,234,254,250,218,6,"2"
250,222,250,250,242,90,253,222,6,"2"
226,218,242,28,241,222,251,254,6,"2"
249,30,243,250,250,222,250,218,6,"2"
251,54,254,12,250,250,62,171,6,"2"
255,222,255,254,253,14,22,67,6,"2"
254,247,250,177,115,218,242,158,6,"2"
243,250,231,254,251,222,254,250,6,"2"
250,250,242,28,250,254,255,238,6,"2"
242,28,250,31,222,231,218,230,6,"2"
218,254,250,246,250,231,250,242,6,"2"
140,30,11,255,254,250,70,225,6,"2"
30,250,156,255,218,251,250,246,6,"2"
28,255,218,242,158,255,254,250,6,"2"
36,59,91,255,218,226,254,254,6,"2"
254,251,218,226,254,242,222,242,6,"2"
140,179,157,255,218,250,14,243,6,"2"
114,118,90,251,254,226,254,244,6,"2"
254,88,250,126,246,90,235,41,7,"2"
251,94,235,90,251,126,125,121,7,"2"
58,165,254,90,246,122,246,126,7,"2"
244,94,250,195,255,126,246,126,7,"2"
246,90,242,174,242,126,250,122,7,"2"
254,90,238,200,250,90,122,248,7,"2"
251,94,250,126,250,90,122,33,7,"2"
251,94,250,90,254,126,243,94,7,"2"
231,106,245,97,255,90,245,94,7,"2"
250,126,242,126,238,140,246,90,7,"2"
250,90,250,101,255,90,250,122,7,"2"
247,136,251,122,238,90,250,122,7,"2"
234,138,251,90,238,90,242,106,7,"2"
251,90,123,75,254,122,243,216,7,"2"
250,218,250,31,255,126,250,126,7,"2"
234,94,234,122,242,94,238,94,7,"2"
239,250,155,29,207,240,94,246,7,"2"
90,250,185,250,90,255,94,254,7,"2"
142,242,250,253,126,234,72,250,7,"2"
126,246,202,250,218,174,94,255,7,"2"
90,255,126,247,200,253,122,255,7,"2"
90,242,88,125,167,255,90,250,7,"2"
121,251,94,253,90,255,202,255,7,"2"
90,238,202,250,122,242,126,239,7,"2"
122,243,90,118,88,251,94,242,7,"2"
126,243,200,254,126,239,94,244,7,"2"
94,251,218,47,94,143,87,122,7,"2"
249,122,250,90,235,90,249,122,7,"2"
246,122,239,90,246,122,191,232,7,"2"
250,126,235,94,247,126,250,126,7,"2"
254,216,58,134,255,126,242,78,8,"2"
255,72,253,72,241,238,255,88,8,"2"
243,91,253,74,255,118,252,114,8,"2"
253,122,242,122,235,122,121,237,8,"2"
58,135,255,90,245,126,242,200,8,"2"
253,122,227,126,243,94,242,202,8,"2"
254,126,244,238,250,114,246,90,8,"2"
246,126,239,202,255,94,234,126,8,"2"
235,90,123,87,255,216,125,207,8,"2"
254,126,242,94,246,90,242,118,8,"2"
231,86,254,86,246,126,250,118,8,"2"
254,82,239,206,249,114,253,206,8,"2"
250,82,246,114,226,204,255,114,8,"2"
242,118,121,113,86,243,172,246,8,"2"
92,250,78,248,118,254,118,251,8,"2"
86,114,191,249,249,114,254,250,8,"2"
40,211,255,78,249,86,254,114,8,"2"
254,82,238,82,246,114,235,142,8,"2"
249,76,255,82,242,106,255,82,8,"2"
251,222,254,94,254,233,249,82,8,"2"
247,114,245,229,255,76,254,118,8,"2"
56,83,143,202,118,234,118,242,8,"2"
86,238,86,255,82,126,168,255,8,"2"
86,255,114,234,94,254,131,255,8,"2"
82,255,86,252,204,254,118,254,8,"2"
118,120,121,248,82,254,118,251,8,"2"
118,235,142,248,82,242,82,254,8,"2"
82,255,114,235,94,126,66,255,8,"2"
86,235,114,239,142,250,118,250,8,"2"
114,254,220,249,86,254,114,89,8,"2"
254,118,254,86,254,94,254,114,9,"2"
227,36,57,194,249,86,227,86,9,"2"
240,118,255,118,253,114,247,118,9,"2"
248,94,255,185,254,118,227,90,9,"2"
248,114,248,86,250,114,255,114,9,"2"
231,82,255,118,229,222,255,114,9,"2"
254,92,215,49,82,244,86,242,9,"2"
86,254,222,251,86,250,204,255,9,"2"
114,250,114,31,96,70,34,118,9,"2"
247,86,227,118,231,204,253,114,9,"2"
243,204,253,87,254,118,250,118,9,"2"
231,206,248,86,250,82,227,82,9,"2"
254,118,231,222,250,82,250,118,9,"2"
247,204,251,220,187,185,255,86,9,"2"
230,114,250,118,241,86,230,220,9,"2"
243,76,241,86,230,118,127,184,9,"2"
158,207,255,86,253,86,226,94,9,"2"
255,118,226,114,246,86,253,218,9,"2"
241,114,224,76,115,40,248,118,9,"2"
255,206,250,82,244,82,254,118,9,"2"
255,114,230,86,250,118,243,250,9,"2"
58,190,255,114,230,118,254,206,9,"2"
255,76,255,92,253,114,249,206,9,"2"
255,114,251,114,164,40,255,82,9,"2"
251,118,251,86,250,41,255,86,9,"2"
226,78,255,82,250,122,250,82,9,"2"
230,76,250,82,228,118,243,82,9,"2"
227,92,250,118,231,92,251,86,9,"2"
231,82,243,242,207,224,254,76,9,"2"
254,114,231,114,244,222,249,114,9,"2"
94,226,254,250,242,222,183,235,0,"3"
206,252,254,239,222,250,218,234,0,"3"
222,253,254,60,82,222,239,152,0,"3"
254,218,254,122,252,250,121,136,0,"3"
254,250,239,218,250,78,126,157,0,"3"
253,250,239,254,247,2,252,222,0,"3"
239,222,238,254,239,250,235,222,0,"3"
242,222,247,250,247,222,255,222,0,"3"
247,222,117,171,255,254,247,250,0,"3"
247,127,255,222,254,222,123,115,0,"3"
255,24,245,250,234,250,254,222,0,"3"
249,218,254,235,159,84,255,218,0,"3"
254,254,63,182,254,159,246,218,0,"3"
22,247,24,253,250,251,250,253,0,"3"
254,246,254,251,250,255,250,246,0,"3"
254,252,218,254,250,238,152,254,0,"3"
254,250,250,235,218,110,94,251,0,"3"
222,235,224,249,250,255,250,254,0,"3"
143,255,218,249,218,239,110,251,0,"3"
254,123,214,252,218,235,218,254,0,"3"
218,235,222,126,10,254,222,252,0,"3"
8,31,246,250,126,74,255,222,0,"3"
234,222,242,218,235,222,254,152,0,"3"
126,250,157,247,26,126,149,167,0,"3"
247,250,239,24,255,152,255,254,0,"3"
239,254,234,226,250,254,244,222,0,"3"
61,165,255,250,253,218,237,254,0,"3"
143,152,218,243,218,110,222,247,0,"3"
43,253,138,255,154,255,250,234,0,"3"
10,79,183,250,239,218,254,10,0,"3"
254,86,226,192,251,90,252,114,1,"3"
253,82,125,74,127,216,45,115,1,"3"
254,242,253,138,255,242,235,8,1,"3"
254,246,255,210,246,130,254,114,1,"3"
253,86,231,118,247,247,23,163,1,"3"
218,252,114,107,218,253,86,242,1,"3"
118,234,118,226,118,238,216,60,1,"3"
223,254,246,234,74,242,234,214,1,"3"
253,246,117,175,60,204,255,242,1,"3"
123,90,222,113,114,94,171,255,1,"3"
82,244,82,238,214,238,118,82,1,"3"
250,118,186,9,61,144,255,122,1,"3"
251,90,239,220,255,94,252,122,1,"3"
239,114,251,218,253,216,255,200,1,"3"
120,146,252,114,248,114,231,82,1,"3"
246,118,231,86,238,210,251,210,1,"3"
92,179,255,246,231,128,249,210,1,"3"
251,88,245,86,252,114,251,82,1,"3"
252,86,243,106,250,115,254,242,1,"3"
253,210,227,226,253,242,235,88,1,"3"
255,246,202,247,214,234,130,127,1,"3"
88,255,202,247,214,234,218,245,1,"3"
111,255,242,243,242,157,95,175,1,"3"
226,255,214,238,210,239,246,239,1,"3"
74,255,214,234,202,254,210,238,1,"3"
200,60,204,207,98,255,242,255,1,"3"
210,234,218,254,246,234,88,151,1,"3"
165,242,238,242,239,106,127,198,1,"3"
119,234,210,255,214,255,214,251,1,"3"
89,157,114,255,254,242,222,222,1,"3"
254,82,244,82,255,114,255,216,2,"3"
250,169,207,106,255,118,239,86,2,"3"
255,82,122,138,255,82,247,114,2,"3"
235,164,243,118,234,132,243,114,2,"3"
238,218,250,114,238,114,239,86,2,"3"
243,114,235,86,234,82,243,118,2,"3"
119,90,122,194,255,82,239,114,2,"3"
244,118,239,82,243,114,243,254,2,"3"
111,86,114,110,110,92,252,255,2,"3"
82,250,118,244,82,235,118,239,2,"3"
118,253,86,157,245,255,114,253,2,"3"
86,250,71,121,248,255,118,239,2,"3"
114,255,132,243,114,253,114,243,2,"3"
114,239,82,122,184,61,247,255,2,"3"
118,235,118,235,216,250,82,250,2,"3"
114,28,88,198,247,88,250,118,2,"3"
250,118,122,86,248,82,247,114,2,"3"
250,118,235,82,238,86,253,114,2,"3"
250,248,62,183,82,250,114,238,2,"3"
118,252,216,250,184,253,82,250,2,"3"
86,250,72,250,248,175,254,254,2,"3"
114,235,82,239,86,247,82,250,2,"3"
74,250,202,250,252,255,216,250,2,"3"
114,247,82,239,78,253,202,250,2,"3"
86,235,200,250,118,243,114,243,2,"3"
82,238,114,244,114,243,128,243,2,"3"
218,250,86,247,82,240,118,250,2,"3"
74,250,118,252,82,123,254,250,2,"3"
82,238,90,122,121,252,218,122,2,"3"
57,252,86,239,114,244,118,250,2,"3"
166,235,218,125,53,90,247,122,3,"3"
238,90,244,238,86,252,202,247,3,"3"
118,244,216,254,82,253,168,254,3,"3"
82,254,82,207,173,200,250,86,3,"3"
248,114,244,114,255,114,246,160,3,"3"
243,118,238,118,245,82,188,238,3,"3"
255,82,251,86,227,118,247,114,3,"3"
234,86,253,114,126,78,56,249,3,"3"
252,86,235,82,250,41,253,86,3,"3"
247,114,255,86,243,114,255,218,3,"3"
254,82,231,82,255,118,251,166,3,"3"
254,114,253,82,255,82,240,82,3,"3"
227,118,252,86,254,127,62,218,3,"3"
15,211,118,255,82,238,86,234,3,"3"
118,255,86,244,118,227,200,253,3,"3"
114,227,114,253,86,251,86,114,3,"3"
120,255,86,253,86,255,74,126,3,"3"
94,255,86,92,13,255,82,254,3,"3"
118,255,118,227,88,126,29,114,3,"3"
247,82,254,72,126,180,118,239,3,"3"
114,227,90,254,82,255,40,252,3,"3"
86,252,82,255,82,254,118,252,3,"3"
82,45,218,255,88,254,200,254,3,"3"
114,252,132,249,86,238,118,234,3,"3"
86,251,202,126,40,252,118,252,3,"3"
86,255,216,254,114,255,218,254,3,"3"
82,247,86,255,86,251,86,230,3,"3"
107,252,88,243,118,226,114,243,3,"3"
82,251,166,187,248,253,82,243,3,"3"
86,239,167,118,252,86,238,114,3,"3"
254,76,254,90,122,120,26,255,4,"3"
122,254,220,254,43,158,182,94,4,"3"
239,206,254,92,254,90,239,166,4,"3"
254,250,254,94,239,94,254,78,4,"3"
254,198,206,254,122,254,90,235,4,"3"
90,250,126,126,92,254,94,250,4,"3"
94,126,182,126,254,90,231,122,4,"3"
237,126,231,122,227,126,231,94,4,"3"
254,94,255,126,242,214,120,130,4,"3"
122,250,90,235,90,254,222,254,4,"3"
90,227,122,231,90,142,54,90,4,"3"
254,90,254,122,123,247,220,254,4,"3"
94,255,122,254,122,252,122,254,4,"3"
94,126,106,94,235,76,254,126,4,"3"
235,90,239,94,235,128,250,122,4,"3"
250,126,235,126,239,130,250,206,4,"3"
254,122,254,94,239,122,250,126,4,"3"
235,126,254,94,250,126,250,206,4,"3"
254,170,94,239,94,250,122,250,4,"3"
122,255,90,235,94,254,126,246,4,"3"
222,250,222,250,237,78,54,90,4,"3"
246,160,253,94,254,94,244,126,4,"3"
253,122,254,94,254,127,94,239,4,"3"
94,254,122,235,94,252,122,235,4,"3"
94,254,186,255,126,255,126,235,4,"3"
90,235,122,254,250,254,94,235,4,"3"
90,235,126,246,76,254,94,246,4,"3"
244,254,94,235,92,254,90,95,4,"3"
250,255,126,246,126,254,94,246,4,"3"
126,252,220,126,251,254,126,242,4,"3"
254,86,250,123,255,82,251,118,5,"3"
251,82,239,250,254,232,124,90,5,"3"
31,164,118,253,82,254,192,254,5,"3"
86,88,198,62,239,118,255,118,5,"3"
255,118,252,226,250,118,254,156,5,"3"
254,86,252,118,250,118,251,123,5,"3"
255,86,231,162,59,167,254,82,5,"3"
248,142,254,140,254,156,254,114,5,"3"
254,86,235,30,58,126,207,250,5,"3"
86,247,118,254,142,248,86,255,5,"3"
202,249,119,255,118,254,82,231,5,"3"
126,254,40,255,86,227,86,255,5,"3"
86,255,114,231,118,246,126,254,5,"3"
171,252,86,233,114,250,82,252,5,"3"
12,126,223,248,86,251,86,250,5,"3"
86,249,118,231,132,250,12,254,5,"3"
82,189,214,60,90,255,86,231,5,"3"
86,254,86,255,192,254,232,255,5,"3"
82,251,128,122,56,254,158,187,5,"3"
146,253,82,254,91,255,86,227,5,"3"
86,254,118,250,118,227,118,251,5,"3"
222,255,86,254,154,156,222,255,5,"3"
114,243,118,254,82,251,126,245,5,"3"
86,254,86,251,12,251,114,251,5,"3"
169,159,183,31,200,207,237,86,5,"3"
243,114,231,30,120,249,252,14,5,"3"
249,114,231,238,251,114,251,86,5,"3"
250,86,242,12,254,86,255,118,5,"3"
231,132,254,86,231,118,250,222,5,"3"
255,114,241,82,230,82,226,114,5,"3"
254,12,250,12,58,119,252,126,6,"3"
245,12,250,126,246,140,250,126,6,"3"
235,234,183,56,254,90,250,156,6,"3"
122,113,90,245,122,235,90,242,6,"3"
90,242,120,255,140,58,56,252,6,"3"
122,252,90,58,40,90,239,126,6,"3"
246,90,239,90,240,94,246,196,6,"3"
248,94,240,90,235,90,250,122,6,"3"
239,230,242,90,252,90,235,90,6,"3"
107,74,121,67,126,249,126,242,6,"3"
90,242,122,242,198,242,142,252,6,"3"
90,246,158,252,122,246,122,233,6,"3"
90,250,142,252,122,250,142,254,6,"3"
14,124,234,254,126,246,30,124,6,"3"
194,254,90,235,94,246,94,254,6,"3"
126,94,254,94,252,122,242,30,6,"3"
60,43,254,90,242,90,242,90,6,"3"
240,94,238,122,242,90,242,90,6,"3"
254,122,117,51,44,87,142,228,6,"3"
90,242,90,234,90,246,122,249,6,"3"
105,30,228,142,117,119,255,122,6,"3"
254,122,252,122,242,90,246,30,6,"3"
252,122,242,122,246,158,253,94,6,"3"
250,28,62,75,122,242,90,253,6,"3"
90,242,122,245,94,246,126,252,6,"3"
122,242,126,246,30,174,78,255,6,"3"
156,253,122,245,158,250,90,117,6,"3"
56,253,122,247,122,246,90,253,6,"3"
218,121,168,255,122,239,90,235,6,"3"
122,246,94,239,28,248,140,184,6,"3"
254,90,254,94,254,126,255,90,7,"3"
247,122,230,218,113,119,255,122,7,"3"
248,122,243,126,243,56,254,94,7,"3"
113,56,252,94,243,239,249,90,7,"3"
251,90,244,90,253,120,60,150,7,"3"
254,94,243,94,254,94,230,94,7,"3"
107,40,222,235,255,126,230,122,7,"3"
248,122,230,192,248,90,248,122,7,"3"
248,90,254,90,241,126,127,251,7,"3"
255,94,255,94,230,94,253,233,7,"3"
255,122,230,90,226,90,226,90,7,"3"
241,122,244,158,243,90,255,126,7,"3"
250,126,244,194,243,14,250,140,7,"3"
250,122,243,90,255,122,250,250,7,"3"
250,126,227,156,250,232,254,126,7,"3"
143,52,156,250,232,159,233,126,7,"3"
250,140,250,126,231,122,250,74,7,"3"
243,63,254,122,246,218,250,28,7,"3"
248,122,254,90,254,185,254,94,7,"3"
243,126,250,254,255,126,231,158,7,"3"
255,94,254,122,242,90,227,224,7,"3"
122,248,252,122,254,90,227,12,7,"3"
255,126,231,28,250,90,244,94,7,"3"
254,126,244,126,122,230,248,14,7,"3"
250,90,250,55,252,90,227,90,7,"3"
244,90,252,122,243,122,243,250,7,"3"
250,94,250,169,78,234,94,253,7,"3"
30,250,126,250,94,231,90,243,7,"3"
122,250,90,227,228,250,122,250,7,"3"
90,113,248,254,156,250,90,227,7,"3"
32,227,222,254,254,254,254,253,8,"3"
160,255,142,254,218,246,250,246,8,"3"
158,255,123,254,142,254,254,123,8,"3"
110,241,222,251,222,242,14,253,8,"3"
222,231,30,254,30,157,91,254,8,"3"
156,253,218,242,218,227,218,92,8,"3"
127,222,117,254,255,14,252,222,8,"3"
242,142,252,222,242,110,255,254,8,"3"
231,238,255,222,127,127,255,250,8,"3"
252,250,227,91,255,218,231,254,8,"3"
227,28,254,14,254,254,231,218,8,"3"
227,142,252,218,242,206,44,95,8,"3"
254,218,245,250,231,218,252,218,8,"3"
242,250,253,140,157,135,255,254,8,"3"
255,254,251,12,142,79,250,255,8,"3"
222,231,254,241,158,252,222,242,8,"3"
126,246,250,246,254,112,185,124,8,"3"
119,254,250,246,78,254,250,254,8,"3"
250,255,162,243,10,254,218,246,8,"3"
94,254,158,44,91,254,254,251,8,"3"
254,254,222,127,110,240,158,93,8,"3"
133,254,254,62,135,254,222,255,8,"3"
254,254,254,226,218,237,250,255,8,"3"
254,255,254,247,78,119,184,199,8,"3"
140,222,246,254,255,182,246,254,8,"3"
226,222,230,140,253,222,249,199,8,"3"
231,218,254,242,250,242,166,253,8,"3"
140,253,218,246,250,251,30,254,8,"3"
250,226,110,187,218,222,45,250,8,"3"
250,255,158,61,169,255,250,249,8,"3"
254,10,117,210,253,254,254,107,9,"3"
157,79,255,222,245,250,255,254,9,"3"
247,222,234,57,231,79,138,247,9,"3"
250,123,94,255,254,247,8,249,9,"3"
24,222,239,250,251,218,235,152,9,"3"
127,95,254,254,250,250,117,233,9,"3"
254,26,249,222,234,222,249,254,9,"3"
238,254,248,136,120,83,150,164,9,"3"
254,247,222,234,218,247,122,254,9,"3"
138,247,250,234,74,245,40,252,9,"3"
222,234,218,247,144,253,222,253,9,"3"
254,243,152,245,250,125,8,56,9,"3"
78,255,254,247,254,238,250,127,9,"3"
169,253,254,249,222,238,254,234,9,"3"
254,234,122,255,250,240,222,254,9,"3"
233,254,218,125,43,157,207,254,9,"3"
222,243,250,117,104,158,165,254,9,"3"
247,106,248,222,253,136,185,41,9,"3"
22,214,250,253,234,247,136,248,9,"3"
152,248,152,249,222,247,254,185,9,"3"
169,253,250,239,250,254,218,247,9,"3"
218,56,127,142,250,222,251,254,9,"3"
247,222,239,123,254,152,249,254,9,"3"
235,164,246,136,89,215,94,137,9,"3"
254,24,249,250,243,218,253,218,9,"3"
254,250,253,222,247,86,125,139,9,"3"
78,78,159,253,222,239,222,235,9,"3"
254,243,222,251,222,235,26,253,9,"3"
218,242,90,185,120,253,254,254,9,"3"
218,120,120,253,250,30,250,254,9,"3"
254,12,248,210,234,12,245,210,0,"4"
231,242,245,251,255,210,227,226,0,"4"
248,242,239,198,247,214,122,247,0,"4"
47,115,210,234,210,252,242,254,0,"4"
242,235,12,254,246,241,210,249,0,"4"
214,246,246,231,235,175,231,246,0,"4"
234,214,242,156,250,210,234,140,0,"4"
247,214,254,214,254,30,254,234,0,"4"
253,30,254,246,250,242,253,43,0,"4"
190,143,254,246,254,242,231,246,0,"4"
251,246,254,14,254,210,254,158,0,"4"
251,242,251,186,23,243,214,242,0,"4"
246,250,246,230,214,249,246,242,0,"4"
228,250,214,106,74,240,246,249,0,"4"
246,243,210,250,242,227,242,246,0,"4"
214,98,106,242,239,194,245,171,0,"4"
253,140,251,246,234,192,245,214,0,"4"
250,242,255,242,253,28,253,242,0,"4"
251,30,63,167,210,234,192,255,0,"4"
106,253,158,181,255,255,210,251,0,"4"
210,255,212,254,142,255,242,255,0,"4"
210,255,30,255,242,250,214,254,0,"4"
214,252,246,214,255,255,150,91,0,"4"
246,253,210,238,212,254,246,235,0,"4"
214,243,30,255,214,235,214,251,0,"4"
214,246,210,255,242,251,12,247,0,"4"
215,254,242,255,214,238,246,255,0,"4"
214,238,28,251,250,247,107,45,0,"4"
211,255,142,250,214,255,242,252,0,"4"
250,244,156,255,214,235,196,244,0,"4"
254,254,231,222,243,156,244,222,1,"4"
245,28,254,222,243,254,254,218,1,"4"
245,250,249,254,254,111,85,35,1,"4"
254,250,235,218,230,250,226,218,1,"4"
126,191,255,222,254,142,126,134,1,"4"
59,229,255,218,254,250,230,218,1,"4"
247,218,254,250,249,231,246,158,1,"4"
246,218,243,218,243,14,247,142,1,"4"
246,218,235,28,254,218,235,250,1,"4"
123,12,254,218,253,250,254,254,1,"4"
226,228,247,28,254,218,252,254,1,"4"
225,254,234,14,241,250,234,222,1,"4"
250,222,247,250,243,164,55,250,1,"4"
250,254,239,222,234,142,245,246,1,"4"
247,218,252,30,250,122,154,36,1,"4"
250,231,218,238,222,250,250,243,1,"4"
156,250,181,61,127,222,230,158,1,"4"
246,254,234,128,121,110,246,254,1,"4"
234,222,239,250,249,140,250,59,1,"4"
251,30,250,254,238,230,247,250,1,"4"
230,250,239,254,226,218,226,222,1,"4"
245,122,251,222,250,243,250,222,1,"4"
231,218,247,238,84,255,255,14,1,"4"
244,140,245,158,244,222,243,158,1,"4"
244,250,247,250,243,140,245,250,1,"4"
85,65,250,245,218,122,191,31,1,"4"
213,250,255,235,167,101,218,254,1,"4"
218,243,140,245,218,226,250,245,1,"4"
250,234,134,243,218,245,254,230,1,"4"
222,243,156,119,10,123,91,252,1,"4"
58,214,242,235,76,245,246,224,2,"4"
246,246,210,239,218,222,241,246,2,"4"
247,107,255,210,242,78,117,2,2,"4"
255,242,235,210,160,79,254,214,2,"4"
251,210,246,222,119,251,248,246,2,"4"
243,142,246,78,247,242,253,140,2,"4"
254,210,227,222,245,194,210,106,2,"4"
234,249,214,246,210,242,214,242,2,"4"
214,231,78,245,242,247,140,247,2,"4"
255,255,214,231,251,214,227,242,2,"4"
246,76,245,76,119,253,254,246,2,"4"
246,222,247,210,227,78,245,214,2,"4"
231,214,231,246,252,210,252,242,2,"4"
231,246,227,250,153,219,255,214,2,"4"
226,78,245,246,229,246,239,94,2,"4"
252,219,255,222,242,222,254,94,2,"4"
117,234,31,34,78,248,246,231,2,"4"
242,99,94,253,246,238,242,246,2,"4"
210,126,67,57,165,255,246,227,2,"4"
246,124,23,220,249,242,246,214,2,"4"
224,210,235,254,234,250,124,105,2,"4"
254,222,124,255,255,222,251,222,2,"4"
250,234,31,214,254,227,222,242,2,"4"
218,245,174,254,254,250,92,245,2,"4"
218,245,250,121,106,254,250,231,2,"4"
254,225,106,115,109,248,254,238,2,"4"
250,234,106,124,43,249,254,228,2,"4"
254,234,218,254,234,189,251,255,2,"4"
218,250,254,250,206,254,250,252,2,"4"
222,239,234,255,78,254,250,110,2,"4"
228,114,227,114,231,230,254,88,3,"4"
15,87,118,234,126,249,82,242,3,"4"
114,246,82,228,234,251,242,246,3,"4"
246,230,202,119,250,95,115,86,3,"4"
245,114,238,82,242,214,246,202,3,"4"
250,82,245,90,247,214,242,246,3,"4"
250,230,249,82,255,88,247,246,3,"4"
238,210,238,210,253,246,242,122,3,"4"
121,106,255,90,245,246,249,90,3,"4"
243,242,254,214,254,164,254,246,3,"4"
239,202,254,82,247,90,242,214,3,"4"
243,210,231,242,235,214,242,242,3,"4"
243,86,226,118,254,184,57,253,3,"4"
255,118,235,114,239,88,250,86,3,"4"
250,114,242,216,250,86,99,206,3,"4"
249,222,254,114,246,86,242,110,3,"4"
123,103,241,86,235,118,254,202,3,"4"
255,86,242,114,255,82,231,224,3,"4"
113,222,254,82,82,215,249,86,3,"4"
246,90,248,118,231,218,113,255,3,"4"
79,234,86,241,218,243,114,191,3,"4"
95,86,241,88,240,200,241,233,3,"4"
15,239,82,241,82,246,90,254,3,"4"
118,243,82,255,202,254,118,235,3,"4"
192,243,82,239,88,250,255,241,3,"4"
86,235,118,247,88,243,86,227,3,"4"
114,246,254,255,86,241,246,250,3,"4"
244,45,234,254,246,118,238,254,3,"4"
105,248,242,246,210,251,214,254,3,"4"
210,253,40,255,202,115,104,249,3,"4"
254,114,239,204,249,82,166,56,4,"4"
153,77,254,118,255,86,255,82,4,"4"
250,82,242,114,24,147,79,211,4,"4"
82,255,78,115,56,248,82,238,4,"4"
82,246,222,248,82,230,76,248,4,"4"
126,254,122,106,254,153,188,254,4,"4"
118,251,90,250,126,230,126,254,4,"4"
202,255,122,230,126,249,222,15,4,"4"
50,122,250,90,249,72,249,94,4,"4"
248,126,248,94,242,126,235,126,4,"4"
243,90,231,238,40,125,126,239,4,"4"
196,254,72,249,74,248,90,249,4,"4"
126,239,90,153,250,254,126,111,4,"4"
94,185,187,255,122,246,202,175,4,"4"
126,255,126,96,119,62,47,254,4,"4"
126,251,200,117,57,254,90,246,4,"4"
94,234,64,250,122,242,74,250,4,"4"
90,228,200,241,216,241,57,255,4,"4"
90,122,218,254,126,230,126,250,4,"4"
90,230,94,230,126,226,35,122,4,"4"
249,90,238,94,250,239,57,11,4,"4"
255,90,242,122,226,126,254,94,4,"4"
243,120,56,94,255,126,230,200,4,"4"
241,126,241,238,249,94,226,126,4,"4"
246,122,238,222,251,130,255,90,4,"4"
226,90,121,78,254,94,242,216,4,"4"
241,126,251,94,242,126,247,202,4,"4"
243,90,109,56,57,206,255,216,4,"4"
126,184,158,137,254,90,252,122,4,"4"
249,126,238,126,226,90,246,254,4,"4"
254,254,225,218,253,218,226,254,5,"4"
248,218,243,254,227,156,90,79,5,"4"
254,254,110,163,218,251,218,230,5,"4"
206,254,254,254,218,230,250,230,5,"4"
142,250,59,59,96,250,226,156,5,"4"
249,30,254,222,249,250,254,230,5,"4"
253,222,231,110,255,254,232,106,5,"4"
255,28,185,118,250,231,254,251,5,"4"
254,231,194,254,28,255,254,250,5,"4"
224,250,254,254,28,253,250,250,5,"4"
94,251,218,251,218,254,250,251,5,"4"
254,245,130,253,158,253,250,250,5,"4"
218,172,171,251,222,250,222,234,5,"4"
254,247,222,110,254,250,250,250,5,"4"
218,255,222,251,254,232,206,255,5,"4"
254,253,254,234,218,250,238,254,5,"4"
254,218,235,158,250,218,250,14,5,"4"
58,59,123,226,140,251,222,254,5,"4"
48,250,123,250,218,250,250,250,5,"4"
218,255,218,251,218,234,196,250,5,"4"
222,250,14,90,114,250,239,222,5,"4"
127,235,251,28,249,218,243,250,5,"4"
250,156,250,222,251,222,247,78,5,"4"
250,218,243,250,251,156,250,218,5,"4"
59,167,250,218,235,32,255,218,5,"4"
239,218,255,224,91,206,255,218,5,"4"
235,254,251,250,239,12,250,199,5,"4"
14,160,218,238,218,255,95,255,5,"4"
12,247,140,189,86,254,254,247,5,"4"
158,254,222,121,234,250,254,246,5,"4"
254,222,245,222,253,250,125,167,6,"4"
250,253,218,117,251,255,222,243,6,"4"
250,254,8,250,154,254,122,254,6,"4"
210,125,107,251,210,250,242,235,6,"4"
242,246,242,246,210,246,246,244,6,"4"
210,255,26,122,178,214,247,164,6,"4"
242,152,253,10,254,250,226,24,6,"4"
125,102,254,222,53,237,253,254,6,"4"
250,250,243,206,250,250,254,122,6,"4"
250,250,250,152,251,10,59,250,6,"4"
10,254,218,253,254,254,152,255,6,"4"
250,234,202,245,222,250,74,255,6,"4"
222,238,218,250,250,227,126,241,6,"4"
250,254,218,250,222,122,247,26,6,"4"
244,10,255,170,22,227,222,243,6,"4"
30,255,214,251,254,226,230,242,6,"4"
214,254,242,253,214,238,214,254,6,"4"
136,122,227,250,238,222,234,222,6,"4"
114,202,254,210,254,158,254,242,6,"4"
246,158,42,193,254,246,225,242,6,"4"
226,106,250,14,155,157,255,250,6,"4"
227,24,125,106,251,26,11,87,6,"4"
218,225,250,246,8,254,218,234,6,"4"
206,250,218,241,254,242,64,225,6,"4"
222,247,24,155,149,254,222,226,6,"4"
222,122,202,241,138,253,222,255,6,"4"
222,246,136,254,222,243,235,122,6,"4"
163,252,254,253,222,230,10,250,6,"4"
222,234,254,249,150,255,222,253,6,"4"
222,251,250,254,24,62,235,255,6,"4"
254,126,250,122,119,220,250,248,7,"4"
254,90,247,126,242,114,230,118,7,"4"
182,57,154,74,255,86,239,82,7,"4"
234,166,254,118,227,86,122,76,7,"4"
243,114,250,118,155,244,255,118,7,"4"
255,82,247,118,125,118,255,114,7,"4"
233,86,249,90,254,122,31,90,7,"4"
111,218,94,231,218,250,222,255,7,"4"
250,233,222,126,122,254,250,254,7,"4"
14,244,218,244,218,250,251,250,7,"4"
246,246,210,227,242,246,78,127,7,"4"
187,251,246,246,26,248,242,251,7,"4"
214,242,246,242,210,251,246,238,7,"4"
210,254,210,254,10,248,138,123,7,"4"
94,254,214,231,242,250,210,254,7,"4"
246,226,90,241,246,254,24,249,7,"4"
26,251,210,231,210,242,138,248,7,"4"
242,255,210,254,242,255,246,227,7,"4"
138,125,43,251,242,103,250,89,7,"4"
171,253,210,248,210,227,8,249,7,"4"
214,227,10,248,24,91,90,250,7,"4"
246,226,210,98,250,56,233,254,7,"4"
214,238,214,247,214,251,126,251,7,"4"
210,251,246,239,246,246,206,155,7,"4"
126,254,214,254,242,238,210,254,7,"4"
214,250,206,254,214,254,58,254,7,"4"
152,253,246,253,126,255,242,242,7,"4"
10,247,138,253,136,255,242,254,7,"4"
242,254,210,239,192,181,107,254,7,"4"
10,254,242,234,246,250,154,255,7,"4"
254,218,238,142,122,187,251,140,8,"4"
245,233,254,222,246,250,250,28,8,"4"
250,250,239,234,254,254,231,196,8,"4"
247,30,243,222,247,214,243,246,8,"4"
254,214,230,142,251,214,226,222,8,"4"
250,214,251,210,26,26,15,231,8,"4"
242,243,12,246,251,246,26,111,8,"4"
214,234,242,91,254,62,241,255,8,"4"
210,142,136,255,210,250,210,251,8,"4"
210,62,94,255,140,26,138,255,8,"4"
210,236,156,251,214,250,214,121,8,"4"
242,246,255,210,247,94,251,246,8,"4"
235,246,247,214,247,214,253,121,8,"4"
250,214,246,210,247,242,235,210,8,"4"
91,231,254,242,253,210,254,156,8,"4"
58,250,253,210,238,214,253,106,8,"4"
242,242,243,104,250,246,235,140,8,"4"
254,246,243,242,170,185,250,246,8,"4"
254,12,214,239,214,247,74,254,8,"4"
12,94,239,254,246,255,246,247,8,"4"
247,254,242,247,116,251,30,59,8,"4"
207,254,30,254,242,251,202,125,8,"4"
50,46,78,255,246,239,242,250,8,"4"
246,233,30,247,110,254,246,235,8,"4"
185,255,14,245,214,253,210,117,8,"4"
249,155,114,255,158,254,214,251,8,"4"
214,246,246,230,156,254,210,251,8,"4"
210,230,214,246,254,179,127,254,8,"4"
158,254,246,254,210,251,242,246,8,"4"
140,254,28,254,140,254,90,62,8,"4"
254,214,254,28,250,214,226,214,9,"4"
246,210,242,22,26,86,63,122,9,"4"
140,255,242,246,28,250,145,246,9,"4"
111,78,250,242,246,242,244,28,9,"4"
250,242,242,158,250,246,234,226,9,"4"
250,214,234,214,250,140,250,41,9,"4"
250,28,250,214,254,214,251,246,9,"4"
235,242,244,214,250,238,122,126,9,"4"
58,240,210,245,210,244,56,251,9,"4"
210,254,160,247,214,238,214,246,9,"4"
78,250,122,254,210,242,246,246,9,"4"
214,250,210,245,214,250,214,246,9,"4"
210,126,57,30,143,255,210,244,9,"4"
160,254,210,235,246,235,30,250,9,"4"
158,250,242,238,214,234,142,119,9,"4"
140,250,246,122,184,58,110,210,9,"4"
246,28,250,246,239,246,235,242,9,"4"
237,214,251,214,242,94,122,163,9,"4"
246,238,214,55,105,254,210,232,9,"4"
242,247,210,238,94,247,233,255,9,"4"
242,126,185,255,242,244,158,245,9,"4"
214,239,210,232,214,243,238,250,9,"4"
246,234,16,235,158,52,247,59,9,"4"
43,255,246,234,214,234,242,253,9,"4"
210,244,206,250,168,254,214,234,9,"4"
214,52,232,156,246,242,244,132,9,"4"
242,214,230,210,252,142,126,179,9,"4"
254,214,244,242,232,30,247,142,9,"4"
250,246,242,30,250,214,250,158,9,"4"
122,185,214,255,242,249,210,234,9,"4"
254,118,249,118,234,94,250,86,0,"5"
234,222,125,254,202,250,126,243,0,"5"
90,243,94,247,218,250,94,114,0,"5"
142,94,255,94,227,74,242,126,0,"5"
250,126,226,90,242,122,242,94,0,"5"
239,122,246,122,242,90,250,87,0,"5"
255,122,246,122,255,218,255,94,0,"5"
247,90,250,122,255,218,59,222,0,"5"
254,126,239,94,235,200,255,72,0,"5"
250,94,243,122,242,122,235,40,0,"5"
254,72,117,22,254,200,117,185,0,"5"
63,220,255,126,244,90,250,122,0,"5"
247,122,254,122,255,94,244,94,0,"5"
240,122,247,218,122,169,254,90,0,"5"
255,122,255,94,235,90,252,94,0,"5"
247,122,243,110,245,216,250,126,0,"5"
125,63,190,234,255,126,235,90,0,"5"
235,122,243,216,243,122,227,90,0,"5"
251,74,255,122,227,228,186,121,0,"5"
255,126,244,94,227,94,247,126,0,"5"
254,238,250,122,231,90,251,122,0,"5"
254,200,250,94,254,216,253,74,0,"5"
250,94,251,122,226,126,242,78,0,"5"
240,200,113,168,254,94,226,122,0,"5"
253,216,248,126,230,126,254,216,0,"5"
251,72,122,78,255,90,249,126,0,"5"
243,126,243,185,254,72,250,94,0,"5"
250,218,250,122,250,126,226,194,0,"5"
255,94,242,94,255,216,251,2,0,"5"
255,216,254,94,255,122,250,122,0,"5"
254,82,122,99,118,253,118,242,1,"5"
118,243,114,243,118,242,86,251,1,"5"
114,230,118,103,106,250,82,99,1,"5"
250,250,41,254,118,254,86,226,1,"5"
114,231,82,250,82,250,82,254,1,"5"
86,123,122,125,232,255,86,250,1,"5"
206,250,82,251,222,254,78,250,1,"5"
86,226,86,191,105,255,76,250,1,"5"
92,122,147,255,86,250,86,251,1,"5"
114,230,82,250,114,255,204,245,1,"5"
82,250,74,250,104,254,118,238,1,"5"
222,253,169,206,241,82,226,82,1,"5"
246,118,126,233,254,86,238,250,1,"5"
254,76,241,78,241,82,252,114,1,"5"
245,82,231,114,231,204,255,118,1,"5"
251,86,239,106,63,74,118,247,1,"5"
86,254,118,227,86,255,114,237,1,"5"
76,255,82,114,243,86,255,76,1,"5"
231,164,114,244,82,249,114,251,1,"5"
204,119,105,254,114,234,94,245,1,"5"
114,235,118,251,94,63,239,254,1,"5"
118,255,114,238,198,251,92,255,1,"5"
82,247,82,255,114,255,82,123,1,"5"
169,254,118,190,86,63,82,62,1,"5"
243,255,86,235,118,255,118,255,1,"5"
118,95,82,254,86,255,118,238,1,"5"
118,242,218,240,82,250,114,246,1,"5"
82,234,86,247,92,250,118,238,1,"5"
82,234,90,255,82,254,218,247,1,"5"
118,244,86,250,118,240,86,239,1,"5"
254,90,231,94,244,126,124,90,2,"5"
251,90,250,90,251,122,225,122,2,"5"
247,122,243,94,254,192,248,126,2,"5"
238,94,243,192,249,94,253,90,2,"5"
247,90,243,122,254,119,249,126,2,"5"
234,126,254,74,248,94,122,90,2,"5"
249,90,251,90,250,94,243,126,2,"5"
247,122,243,42,159,149,255,126,2,"5"
244,94,243,200,59,42,255,122,2,"5"
243,234,115,243,255,126,251,122,2,"5"
250,126,243,122,247,94,251,122,2,"5"
247,192,251,202,250,94,249,94,2,"5"
179,114,255,94,231,122,243,90,2,"5"
251,90,254,74,90,95,254,122,2,"5"
249,122,247,126,247,90,59,118,2,"5"
254,122,235,216,250,126,239,90,2,"5"
251,122,253,126,254,122,235,90,2,"5"
253,122,251,126,246,94,254,94,2,"5"
250,122,120,200,251,122,227,94,2,"5"
251,126,239,88,123,42,255,216,2,"5"
251,94,255,122,239,126,250,126,2,"5"
255,106,251,126,247,202,251,122,2,"5"
251,218,251,90,250,94,255,126,2,"5"
251,122,241,90,235,126,187,43,2,"5"
254,122,239,106,250,94,243,122,2,"5"
247,74,251,126,254,90,250,90,2,"5"
253,90,243,187,254,90,120,107,2,"5"
255,94,247,90,248,94,247,126,2,"5"
227,94,251,122,243,90,56,86,2,"5"
255,90,235,192,247,126,238,94,2,"5"
254,122,234,72,254,183,255,126,3,"5"
254,74,254,122,127,58,255,126,3,"5"
251,126,242,122,253,90,255,165,3,"5"
94,255,122,254,122,254,90,254,3,"5"
174,122,251,94,255,216,254,126,3,"5"
250,94,253,122,251,90,253,94,3,"5"
234,166,255,126,252,122,255,122,3,"5"
234,90,246,122,245,88,254,90,3,"5"
255,74,255,126,123,228,122,255,3,"5"
122,231,126,234,126,234,94,242,3,"5"
200,254,58,254,90,252,126,254,3,"5"
202,126,119,254,126,255,126,255,3,"5"
94,255,126,238,90,254,90,253,3,"5"
122,255,126,251,72,254,94,255,3,"5"
216,247,88,247,90,253,238,254,3,"5"
94,255,90,250,94,252,200,254,3,"5"
126,255,94,238,126,254,122,254,3,"5"
90,62,171,254,94,243,90,245,3,"5"
90,252,94,255,90,251,94,238,3,"5"
90,254,94,255,180,254,90,254,3,"5"
218,254,218,254,126,242,126,253,3,"5"
126,126,246,122,254,94,255,200,3,"5"
214,164,126,255,200,254,94,254,3,"5"
94,254,90,254,94,254,90,254,3,"5"
90,234,182,253,122,252,90,255,3,"5"
122,251,126,242,122,251,94,254,3,"5"
202,254,126,255,90,156,165,200,3,"5"
254,216,126,255,122,252,90,255,3,"5"
126,246,94,252,216,126,114,90,3,"5"
242,94,245,122,238,94,253,88,3,"5"
254,92,253,92,253,114,22,228,4,"5"
82,247,86,244,82,247,82,254,4,"5"
82,255,118,244,220,253,210,254,4,"5"
118,227,220,255,86,244,94,250,4,"5"
82,235,82,235,82,250,114,254,4,"5"
194,255,220,253,82,255,118,251,4,"5"
76,248,78,248,114,250,114,239,4,"5"
220,63,55,255,82,239,114,235,4,"5"
226,255,82,251,114,254,82,255,4,"5"
86,248,82,251,90,245,86,253,4,"5"
118,253,78,125,234,254,114,255,4,"5"
94,253,114,254,78,253,114,125,4,"5"
63,254,86,239,86,254,76,125,4,"5"
235,255,86,255,86,239,82,247,4,"5"
94,250,82,251,74,248,220,250,4,"5"
82,243,218,252,82,235,82,255,4,"5"
114,255,204,250,118,247,78,250,4,"5"
218,255,204,250,86,247,220,248,4,"5"
239,255,82,239,114,255,86,254,4,"5"
82,254,114,239,114,255,86,251,4,"5"
192,120,114,255,82,244,118,250,4,"5"
82,239,94,125,42,255,82,239,4,"5"
118,255,82,127,214,159,14,114,4,"5"
251,114,250,82,235,220,250,82,4,"5"
250,82,235,86,251,90,253,86,4,"5"
235,82,122,86,254,114,252,92,4,"5"
250,118,231,78,254,204,254,57,4,"5"
254,82,231,86,251,114,231,76,4,"5"
254,250,254,118,246,82,122,127,4,"5"
254,86,250,82,227,114,227,118,4,"5"
254,126,242,194,123,251,254,90,5,"5"
238,90,246,222,247,126,238,122,5,"5"
246,94,247,204,245,90,243,126,5,"5"
247,74,254,253,254,94,238,76,5,"5"
254,90,242,78,254,90,226,122,5,"5"
254,78,251,94,230,94,242,106,5,"5"
254,170,250,94,123,119,94,227,5,"5"
122,234,90,227,234,254,94,245,5,"5"
126,121,66,251,94,227,122,246,5,"5"
134,247,126,251,94,231,206,126,5,"5"
46,252,122,126,10,255,76,250,5,"5"
126,250,90,231,90,239,160,243,5,"5"
126,247,90,243,90,106,122,251,5,"5"
215,250,122,119,111,251,126,227,5,"5"
90,235,116,250,90,234,76,250,5,"5"
78,122,107,70,114,94,252,94,5,"5"
238,122,227,126,245,126,238,122,5,"5"
242,164,247,126,243,220,245,83,5,"5"
255,126,254,126,230,122,226,78,5,"5"
250,126,242,222,250,42,255,90,5,"5"
239,78,250,55,254,122,255,122,5,"5"
235,202,255,94,238,94,247,94,5,"5"
234,206,250,94,234,134,119,5,5,"5"
254,94,246,166,247,94,255,126,5,"5"
250,122,250,122,234,76,122,103,5,"5"
255,94,250,92,250,94,244,234,5,"5"
253,94,242,94,243,122,242,90,5,"5"
62,57,143,242,122,250,114,30,5,"5"
101,90,234,122,235,90,243,94,5,"5"
187,58,222,57,255,122,234,90,5,"5"
254,114,235,118,123,235,255,114,6,"5"
247,118,239,114,123,115,15,162,6,"5"
86,239,94,254,78,252,114,235,6,"5"
94,255,118,252,118,245,82,235,6,"5"
206,95,206,251,118,243,82,61,6,"5"
251,251,118,245,227,114,239,114,6,"5"
235,82,121,250,223,227,118,250,6,"5"
78,118,254,220,94,198,30,74,6,"5"
254,86,234,118,247,118,63,186,6,"5"
158,175,114,247,86,250,118,122,6,"5"
199,95,221,254,82,238,114,250,6,"5"
200,86,247,86,243,118,247,204,6,"5"
254,118,243,220,253,82,245,114,6,"5"
251,78,245,82,62,226,94,245,6,"5"
82,234,126,255,114,234,222,60,6,"5"
194,250,86,247,220,117,59,254,6,"5"
82,254,82,254,82,250,86,238,6,"5"
82,243,128,59,207,114,245,114,6,"5"
230,82,226,118,255,76,63,107,6,"5"
254,94,255,82,154,119,255,220,6,"5"
245,138,251,118,239,86,235,86,6,"5"
106,238,250,94,247,82,238,160,6,"5"
115,94,255,206,254,92,255,118,6,"5"
253,118,245,92,117,47,254,206,6,"5"
247,82,243,78,251,114,249,82,6,"5"
251,118,238,118,238,82,239,82,6,"5"
121,94,255,118,121,94,94,87,6,"5"
254,86,249,251,251,86,246,220,6,"5"
252,206,253,118,242,86,117,95,6,"5"
95,70,255,78,255,86,249,82,6,"5"
254,114,227,82,227,86,243,118,7,"5"
231,82,102,254,254,235,251,86,7,"5"
251,86,235,118,255,118,231,78,7,"5"
120,183,255,204,250,58,250,94,7,"5"
250,114,231,220,245,82,243,204,7,"5"
255,118,247,118,247,238,251,86,7,"5"
235,94,60,199,251,114,245,86,7,"5"
231,92,253,114,231,114,254,86,7,"5"
235,86,255,204,247,58,248,114,7,"5"
252,82,95,231,255,86,227,66,7,"5"
168,234,251,114,254,114,230,206,7,"5"
190,151,254,94,113,94,254,118,7,"5"
238,86,107,222,251,118,243,204,7,"5"
247,58,255,82,245,130,255,86,7,"5"
251,82,231,114,253,94,254,86,7,"5"
247,220,93,202,155,127,255,118,7,"5"
99,206,42,200,255,118,239,118,7,"5"
231,114,250,82,255,82,254,107,7,"5"
251,76,251,114,241,114,227,128,7,"5"
240,220,114,251,118,254,94,159,7,"5"
188,170,251,114,247,82,247,118,7,"5"
251,86,250,206,189,231,251,82,7,"5"
241,82,235,162,251,86,63,202,7,"5"
251,118,235,114,239,86,239,192,7,"5"
254,86,255,118,189,95,91,149,7,"5"
254,118,255,94,250,118,158,155,7,"5"
126,86,247,187,23,50,82,234,7,"5"
82,158,50,118,253,118,254,86,7,"5"
254,86,255,206,122,95,190,90,7,"5"
31,126,118,231,86,227,94,26,7,"5"
254,86,251,86,255,86,234,114,8,"5"
235,82,251,204,245,94,247,114,8,"5"
255,86,119,122,254,114,230,254,8,"5"
251,114,251,114,102,222,241,200,8,"5"
114,82,254,82,226,238,243,94,8,"5"
251,82,226,94,126,186,59,238,8,"5"
255,118,255,118,249,114,226,222,8,"5"
126,122,154,5,254,118,255,78,8,"5"
254,82,252,114,231,114,251,82,8,"5"
99,78,127,171,250,114,252,118,8,"5"
254,118,231,206,254,118,249,78,8,"5"
204,254,92,126,107,91,55,45,8,"5"
127,191,200,215,234,86,247,118,8,"5"
246,78,254,114,250,86,238,118,8,"5"
255,118,254,10,114,255,94,255,8,"5"
204,254,2,251,204,254,118,251,8,"5"
82,117,222,255,114,225,82,225,8,"5"
82,117,235,175,226,118,234,78,8,"5"
253,114,238,118,245,86,243,114,8,"5"
251,110,253,103,250,82,234,82,8,"5"
234,94,154,162,118,254,118,254,8,"5"
118,234,204,254,82,126,170,250,8,"5"
82,234,162,127,91,254,86,238,8,"5"
220,247,206,119,107,251,78,254,8,"5"
82,254,222,126,171,63,247,114,8,"5"
187,235,255,118,255,92,254,127,8,"5"
255,118,254,171,43,127,255,82,8,"5"
238,114,251,238,123,199,251,86,8,"5"
234,110,251,78,254,86,254,234,8,"5"
155,133,255,94,126,127,79,226,8,"5"
254,90,230,202,249,90,250,90,9,"5"
246,122,253,95,255,216,254,122,9,"5"
207,123,200,254,90,250,90,251,9,"5"
126,238,195,126,235,90,238,164,9,"5"
251,122,239,74,253,122,253,127,9,"5"
255,74,155,83,78,242,94,254,9,"5"
126,214,26,94,58,225,122,242,9,"5"
74,254,202,254,127,207,242,255,9,"5"
94,251,94,250,126,227,126,242,9,"5"
94,225,200,254,122,239,90,254,9,"5"
90,91,115,255,94,227,72,254,9,"5"
94,231,126,231,126,242,72,255,9,"5"
126,231,200,43,37,255,94,251,9,"5"
126,239,88,254,122,246,216,254,9,"5"
88,254,247,122,14,254,90,235,9,"5"
202,243,106,254,74,254,126,242,9,"5"
90,254,122,239,74,254,119,255,9,"5"
90,242,110,125,112,126,231,94,9,"5"
254,103,250,90,252,122,254,94,9,"5"
126,111,250,122,126,254,158,35,9,"5"
255,90,239,122,239,90,239,90,9,"5"
246,126,254,126,254,251,255,126,9,"5"
126,49,207,240,90,254,94,246,9,"5"
90,239,126,239,88,59,1,255,9,"5"
126,225,94,241,35,23,177,90,9,"5"
239,230,255,122,235,74,254,74,9,"5"
251,94,123,146,93,1,254,122,9,"5"
246,94,125,255,255,94,239,122,9,"5"
249,122,254,126,242,222,254,74,9,"5"
155,123,254,90,239,238,58,192,9,"5"
254,126,235,94,252,74,125,87,0,"6"
255,122,126,234,254,126,249,126,0,"6"
243,126,252,126,253,72,122,215,0,"6"
206,135,90,230,202,115,42,252,0,"6"
122,230,126,230,94,226,126,248,0,"6"
94,247,90,253,202,254,90,226,0,"6"
122,250,74,253,202,255,74,253,0,"6"
122,255,126,253,74,255,122,245,0,"6"
122,117,245,60,69,255,90,254,0,"6"
122,253,90,222,145,255,94,255,0,"6"
94,243,94,241,90,253,90,46,0,"6"
115,254,94,247,90,254,122,255,0,"6"
126,255,126,234,126,255,234,62,0,"6"
226,255,122,255,170,255,122,255,0,"6"
90,253,122,226,88,255,94,174,0,"6"
226,255,90,254,83,254,90,230,0,"6"
198,255,122,247,122,60,2,94,0,"6"
251,126,247,94,230,90,255,122,0,"6"
121,187,159,242,94,253,72,253,0,"6"
138,254,216,255,94,241,216,113,0,"6"
69,255,126,253,126,254,87,255,0,"6"
90,253,126,255,126,255,88,254,0,"6"
122,251,94,251,122,255,122,239,0,"6"
72,126,87,254,126,231,202,254,0,"6"
126,251,126,239,126,227,202,254,0,"6"
126,255,90,94,219,15,115,90,0,"6"
252,94,243,90,255,90,227,126,0,"6"
253,122,231,218,255,192,255,234,0,"6"
125,139,255,122,254,122,255,122,0,"6"
255,72,253,90,255,122,251,90,0,"6"
20,226,250,242,250,121,63,15,1,"6"
99,254,235,254,226,222,235,222,1,"6"
239,196,118,235,252,222,245,218,1,"6"
230,254,186,58,255,250,239,218,1,"6"
242,222,251,250,235,140,248,222,1,"6"
238,12,248,12,88,7,254,140,1,"6"
250,12,88,86,254,222,226,156,1,"6"
113,175,255,254,254,218,241,250,1,"6"
230,202,247,218,234,140,248,254,1,"6"
238,222,250,254,238,112,254,250,1,"6"
234,250,247,198,245,158,247,206,1,"6"
220,171,254,222,248,222,235,28,1,"6"
241,222,235,230,249,250,226,218,1,"6"
246,222,234,254,242,30,31,35,1,"6"
222,238,202,249,250,125,30,255,1,"6"
222,226,254,250,218,242,14,254,1,"6"
250,246,250,245,250,226,74,244,1,"6"
218,245,222,252,222,230,12,206,1,"6"
162,254,254,140,250,222,245,250,1,"6"
254,218,238,218,235,74,251,250,1,"6"
238,250,122,86,62,136,252,218,1,"6"
234,218,234,218,238,218,247,218,1,"6"
230,218,254,250,231,218,254,19,1,"6"
255,254,243,198,248,222,234,222,1,"6"
241,254,255,158,248,222,250,142,1,"6"
250,43,254,222,226,222,238,30,1,"6"
250,218,243,218,254,234,250,218,1,"6"
227,250,253,250,250,112,63,243,1,"6"
254,235,218,235,250,250,250,226,1,"6"
250,250,222,57,234,255,218,241,1,"6"
254,246,239,222,252,214,255,246,2,"6"
243,158,60,222,255,214,254,214,2,"6"
239,156,120,43,255,242,239,246,2,"6"
251,210,246,242,234,140,253,242,2,"6"
23,41,255,246,23,222,242,227,2,"6"
210,252,246,235,12,254,12,255,2,"6"
140,44,37,246,245,242,233,242,2,"6"
243,222,245,214,255,210,230,242,2,"6"
234,242,254,242,250,242,253,242,2,"6"
239,162,119,177,255,246,252,210,2,"6"
243,242,239,222,157,63,210,255,2,"6"
246,62,119,255,158,210,95,95,2,"6"
252,210,122,123,255,210,231,214,2,"6"
251,158,252,246,243,246,230,196,2,"6"
62,169,242,234,246,251,214,117,2,"6"
187,255,242,61,91,255,246,227,2,"6"
246,247,28,253,14,94,250,255,2,"6"
246,245,30,45,119,255,14,242,2,"6"
226,210,235,246,115,146,255,242,2,"6"
234,156,254,246,255,214,250,242,2,"6"
254,254,250,242,227,246,251,214,2,"6"
251,74,59,107,252,242,251,28,2,"6"
251,12,251,210,231,156,251,210,2,"6"
255,242,251,214,231,16,254,140,2,"6"
251,214,231,156,121,222,255,246,2,"6"
251,246,251,214,255,140,121,170,2,"6"
156,89,203,158,229,254,210,239,2,"6"
94,89,194,255,210,231,242,234,2,"6"
242,238,242,254,235,127,73,214,2,"6"
238,246,234,214,251,210,231,210,2,"6"
254,250,227,214,255,214,255,75,3,"6"
254,254,235,222,245,254,125,91,3,"6"
255,250,190,158,255,12,255,222,3,"6"
254,222,246,106,251,254,242,12,3,"6"
255,218,254,110,253,187,60,162,3,"6"
246,235,214,253,214,246,214,254,3,"6"
246,234,30,252,214,239,214,242,3,"6"
214,227,214,242,123,255,242,246,3,"6"
242,242,242,251,14,253,210,239,3,"6"
164,249,242,239,214,240,246,239,3,"6"
214,124,94,246,239,210,250,242,3,"6"
254,250,252,246,246,14,255,210,3,"6"
235,210,231,242,235,158,253,210,3,"6"
235,158,254,242,231,116,251,246,3,"6"
250,214,253,214,254,210,245,12,3,"6"
253,210,227,158,254,214,231,134,3,"6"
254,14,255,246,253,242,235,242,3,"6"
231,28,124,123,253,246,107,254,3,"6"
254,156,254,156,61,123,252,156,3,"6"
253,214,231,158,60,75,255,246,3,"6"
227,242,227,242,254,214,231,214,3,"6"
235,126,252,156,253,246,254,246,3,"6"
243,100,157,2,12,255,242,239,3,"6"
210,254,214,227,158,255,242,255,3,"6"
242,255,246,249,242,254,42,60,3,"6"
114,214,254,210,254,214,238,140,3,"6"
241,79,252,242,243,12,254,210,3,"6"
246,253,94,254,210,254,107,253,3,"6"
210,123,71,255,246,255,214,238,3,"6"
246,238,30,247,214,234,132,247,3,"6"
252,218,239,254,226,78,242,254,4,"6"
251,254,254,222,227,254,247,222,4,"6"
230,156,92,82,254,255,254,230,4,"6"
94,252,222,238,28,247,222,254,4,"6"
222,247,250,227,156,252,198,199,4,"6"
226,250,103,142,159,126,254,246,4,"6"
254,238,254,226,222,113,71,252,4,"6"
222,252,254,230,218,230,12,254,4,"6"
222,238,218,251,158,247,254,239,4,"6"
250,254,156,122,59,254,254,157,4,"6"
114,218,226,250,226,254,250,218,4,"6"
234,254,250,254,235,222,253,254,4,"6"
111,238,122,170,252,250,243,222,4,"6"
255,222,238,78,250,254,235,222,4,"6"
234,218,124,242,218,126,146,253,4,"6"
218,255,254,250,254,251,222,251,4,"6"
218,255,254,238,222,252,78,253,4,"6"
222,122,230,218,238,222,246,250,4,"6"
243,14,247,218,255,14,254,219,4,"6"
254,254,255,158,92,242,254,239,4,"6"
218,251,199,218,252,250,230,218,4,"6"
231,158,254,156,122,250,174,80,4,"6"
250,255,218,250,250,255,250,227,4,"6"
250,254,250,226,140,254,243,254,4,"6"
254,102,222,113,42,255,222,243,4,"6"
254,241,254,126,234,253,218,246,4,"6"
234,253,218,255,254,251,218,156,4,"6"
243,253,222,243,222,245,218,240,4,"6"
222,250,223,253,250,255,218,251,4,"6"
218,255,158,127,55,254,218,255,4,"6"
254,218,253,250,226,156,243,254,5,"6"
244,254,234,192,254,218,252,222,5,"6"
250,250,243,218,250,90,253,142,5,"6"
122,86,252,250,249,218,238,250,5,"6"
226,142,250,42,253,250,253,250,5,"6"
234,218,244,218,250,218,241,250,5,"6"
122,158,115,106,255,250,226,30,5,"6"
243,250,238,218,253,250,234,28,5,"6"
250,47,254,222,99,140,245,43,5,"6"
252,222,234,30,247,250,117,235,5,"6"
250,255,250,234,250,119,78,157,5,"6"
115,30,96,218,242,210,250,214,5,"6"
245,242,239,156,250,242,245,210,5,"6"
226,254,245,14,245,198,125,235,5,"6"
254,214,254,28,250,210,239,242,5,"6"
252,246,234,130,246,242,227,242,5,"6"
255,156,28,115,214,227,210,246,5,"6"
242,235,214,254,246,247,156,113,5,"6"
163,254,210,121,222,30,179,214,5,"6"
250,214,250,123,255,246,250,214,5,"6"
231,214,238,242,235,206,188,179,5,"6"
246,250,210,254,242,254,30,250,5,"6"
28,250,210,238,12,247,218,106,5,"6"
250,121,59,252,14,247,250,225,5,"6"
250,234,218,251,254,227,28,245,5,"6"
222,226,47,254,12,254,94,246,5,"6"
230,242,230,210,119,96,210,234,5,"6"
246,245,242,252,210,243,94,254,5,"6"
122,254,242,225,214,235,214,234,5,"6"
198,250,214,252,242,254,210,250,5,"6"
254,222,234,156,248,28,249,156,6,"6"
248,162,59,206,60,222,254,251,6,"6"
218,98,202,250,222,249,222,226,6,"6"
222,255,14,241,59,253,250,243,6,"6"
218,248,142,250,250,242,250,250,6,"6"
142,247,250,242,86,251,254,251,6,"6"
59,60,83,254,250,234,28,250,6,"6"
222,250,107,253,28,250,222,242,6,"6"
28,250,83,30,55,254,156,245,6,"6"
250,250,218,227,250,255,250,250,6,"6"
43,253,222,238,234,57,234,252,6,"6"
218,238,55,254,254,246,158,250,6,"6"
14,249,170,254,158,123,170,254,6,"6"
218,250,250,122,42,253,254,246,6,"6"
140,250,254,252,218,246,12,243,6,"6"
250,255,250,226,250,255,68,254,6,"6"
210,254,222,114,95,249,254,242,6,"6"
222,99,202,121,235,252,250,254,6,"6"
218,242,142,254,146,253,222,254,6,"6"
250,231,222,242,222,242,55,31,6,"6"
250,218,245,218,106,202,247,222,6,"6"
254,254,238,222,251,254,234,128,6,"6"
251,222,254,254,231,122,117,127,6,"6"
254,250,254,218,254,254,242,222,6,"6"
255,43,253,222,118,107,253,218,6,"6"
238,250,249,218,246,74,249,222,6,"6"
247,254,251,222,238,254,234,218,6,"6"
247,250,118,14,250,30,248,222,6,"6"
243,222,251,250,90,202,60,231,6,"6"
254,250,249,156,254,42,255,250,6,"6"
254,222,237,250,253,222,237,254,7,"6"
254,122,255,254,242,140,245,254,7,"6"
234,90,249,254,238,222,242,254,7,"6"
234,254,234,187,62,161,222,250,7,"6"
254,242,222,250,254,234,123,143,7,"6"
225,250,255,218,98,202,127,103,7,"6"
255,250,253,140,241,250,250,107,7,"6"
255,250,234,162,243,218,230,250,7,"6"
255,218,243,250,231,250,246,234,7,"6"
250,87,62,201,207,206,222,226,7,"6"
222,234,218,117,43,255,250,250,7,"6"
222,250,222,230,254,226,222,238,7,"6"
158,245,156,254,218,238,218,250,7,"6"
12,254,74,254,218,234,218,255,7,"6"
250,250,130,253,43,255,254,253,7,"6"
254,110,218,255,140,254,222,254,7,"6"
74,254,83,255,218,253,43,255,7,"6"
28,254,250,253,218,234,222,127,7,"6"
42,126,42,255,222,250,128,253,7,"6"
218,227,128,253,222,254,254,250,7,"6"
222,234,156,254,107,218,250,218,7,"6"
234,250,238,218,234,156,243,222,7,"6"
244,254,250,250,254,254,234,160,7,"6"
113,78,255,222,241,254,227,218,7,"6"
237,122,249,222,226,142,241,254,7,"6"
238,42,255,254,226,254,114,234,7,"6"
254,14,250,250,191,87,252,222,7,"6"
238,254,246,130,114,234,255,254,7,"6"
250,115,255,12,245,28,247,115,7,"6"
218,238,218,255,222,244,218,226,7,"6"
254,12,245,250,238,250,250,140,8,"6"
254,122,152,83,254,254,222,250,8,"6"
254,246,30,245,254,254,222,242,8,"6"
218,249,218,226,206,81,71,14,8,"6"
243,222,242,250,234,250,242,142,8,"6"
245,250,226,250,126,186,255,218,8,"6"
246,250,225,156,243,218,242,218,8,"6"
242,250,246,218,231,250,246,250,8,"6"
250,43,249,218,250,218,250,191,8,"6"
248,254,251,30,254,250,255,254,8,"6"
254,250,253,254,176,46,255,222,8,"6"
254,250,239,140,254,250,238,218,8,"6"
239,162,254,254,255,222,252,222,8,"6"
255,218,250,166,250,140,245,156,8,"6"
250,142,248,250,235,218,239,238,8,"6"
254,30,254,250,248,254,239,110,8,"6"
122,122,255,250,231,218,246,250,8,"6"
246,222,227,222,231,12,31,241,8,"6"
250,215,230,250,239,218,245,250,8,"6"
237,254,254,250,248,140,249,250,8,"6"
246,16,251,222,250,222,235,222,8,"6"
125,165,254,222,250,222,122,170,8,"6"
249,254,246,222,230,158,122,234,8,"6"
249,142,250,218,254,14,250,42,8,"6"
249,222,250,222,246,156,121,46,8,"6"
30,240,142,247,91,254,254,239,8,"6"
134,119,165,255,254,246,254,239,8,"6"
12,255,140,248,250,223,196,250,8,"6"
250,30,122,234,254,158,250,170,8,"6"
255,250,246,12,250,250,250,250,8,"6"
254,218,251,218,97,12,243,222,9,"6"
242,28,187,74,248,222,242,160,9,"6"
241,156,251,254,238,28,245,222,9,"6"
254,14,250,222,235,222,107,218,9,"6"
242,218,229,142,247,254,234,250,9,"6"
246,222,238,250,249,218,234,222,9,"6"
239,122,254,254,242,142,241,222,9,"6"
238,250,254,218,250,250,249,250,9,"6"
238,254,251,140,40,13,254,14,9,"6"
152,47,254,222,114,43,248,254,9,"6"
242,250,230,218,242,158,242,250,9,"6"
251,30,242,86,40,95,254,254,9,"6"
245,28,242,254,56,47,254,245,9,"6"
254,242,140,247,254,242,122,41,9,"6"
123,255,218,239,28,242,254,235,9,"6"
254,228,254,242,166,242,158,242,9,"6"
250,238,254,241,250,242,250,232,9,"6"
95,254,218,251,123,254,222,251,9,"6"
122,92,203,248,250,249,250,62,9,"6"
207,56,63,255,250,231,160,254,9,"6"
218,249,222,234,218,102,202,241,9,"6"
254,226,158,243,250,92,67,248,9,"6"
222,254,222,252,254,242,250,242,9,"6"
106,255,250,247,166,250,250,122,9,"6"
12,246,98,254,250,251,250,230,9,"6"
218,254,250,250,250,251,134,241,9,"6"
12,243,12,241,218,122,140,117,9,"6"
95,254,12,243,28,247,250,246,9,"6"
218,100,218,250,226,28,60,96,9,"6"
199,218,222,234,132,253,254,242,9,"6"
254,86,251,82,253,114,127,118,0,"7"
253,118,253,86,95,83,251,86,0,"7"
251,218,253,82,255,86,239,200,0,"7"
125,219,254,202,253,90,253,82,0,"7"
239,78,253,118,253,114,255,72,0,"7"
255,114,231,114,255,74,191,37,0,"7"
82,227,118,253,72,255,88,255,0,"7"
114,251,72,255,86,246,118,121,0,"7"
191,255,88,255,202,255,82,231,0,"7"
82,251,202,241,86,230,82,251,0,"7"
82,243,238,255,118,255,82,230,0,"7"
82,255,118,230,82,252,234,251,0,"7"
118,226,86,247,118,253,88,254,0,"7"
72,255,82,251,114,254,86,255,0,"7"
82,239,82,235,206,246,86,253,0,"7"
86,239,118,235,206,253,86,235,0,"7"
82,251,82,251,78,253,216,61,0,"7"
206,255,86,235,114,253,218,253,0,"7"
86,246,88,250,114,235,72,61,0,"7"
202,114,235,82,251,88,253,114,0,"7"
251,82,251,86,189,138,255,82,0,"7"
247,82,227,58,250,200,255,118,0,"7"
243,118,255,74,255,86,254,86,0,"7"
251,206,255,86,231,222,191,210,0,"7"
255,118,255,74,255,86,231,72,0,"7"
63,210,255,86,227,110,127,223,0,"7"
255,82,231,200,255,82,231,86,0,"7"
227,114,243,82,227,114,255,82,0,"7"
247,234,251,82,251,82,251,114,0,"7"
127,219,254,114,237,118,231,232,0,"7"
254,90,239,122,255,222,242,126,1,"7"
108,251,91,63,126,110,204,255,1,"7"
90,255,126,251,92,251,122,242,1,"7"
126,242,90,255,126,121,255,255,1,"7"
90,255,122,234,126,239,126,235,1,"7"
90,242,90,251,78,255,94,255,1,"7"
94,108,157,122,255,94,94,126,1,"7"
250,94,246,126,182,171,250,222,1,"7"
253,171,90,242,220,250,122,246,1,"7"
94,255,126,246,122,251,126,231,1,"7"
126,255,110,90,231,232,255,86,1,"7"
251,82,226,82,226,86,226,118,1,"7"
230,118,243,120,250,76,251,90,1,"7"
253,76,243,122,253,90,241,126,1,"7"
241,94,230,122,253,92,241,235,1,"7"
254,126,243,250,114,41,255,114,1,"7"
255,72,254,118,250,114,127,90,1,"7"
241,86,243,105,255,82,122,215,1,"7"
63,110,255,118,251,126,255,72,1,"7"
255,200,253,114,227,114,237,72,1,"7"
253,88,158,90,239,165,122,255,1,"7"
90,251,94,251,90,251,94,231,1,"7"
110,255,126,254,126,253,114,227,1,"7"
118,227,138,253,63,255,94,231,1,"7"
218,255,118,255,72,255,114,250,1,"7"
126,253,90,255,122,255,247,23,1,"7"
61,94,238,222,253,94,251,76,1,"7"
253,90,253,114,255,86,168,61,1,"7"
94,255,59,255,122,249,122,247,1,"7"
90,125,122,94,247,204,255,122,1,"7"
254,78,247,82,255,82,247,126,2,"7"
247,90,230,222,240,126,227,170,2,"7"
243,86,241,82,247,118,247,114,2,"7"
246,88,250,118,250,56,251,90,2,"7"
227,94,250,184,255,202,253,94,2,"7"
255,122,249,72,251,74,250,94,2,"7"
226,90,123,74,253,90,231,136,2,"7"
250,126,230,170,251,216,253,94,2,"7"
247,90,250,122,242,90,115,78,2,"7"
240,218,244,118,238,200,245,90,2,"7"
255,114,255,118,254,86,251,72,2,"7"
246,86,239,90,245,88,126,56,2,"7"
30,78,255,86,235,86,247,216,2,"7"
251,118,250,82,238,86,90,156,2,"7"
151,87,122,227,122,254,204,253,2,"7"
90,255,122,254,94,255,220,254,2,"7"
171,251,90,226,126,231,140,251,2,"7"
122,249,216,250,94,254,122,249,2,"7"
122,227,90,243,126,101,206,243,2,"7"
126,231,90,236,78,91,91,251,2,"7"
122,255,126,251,222,58,211,255,2,"7"
94,249,94,254,122,235,122,250,2,"7"
206,250,126,251,122,235,126,191,2,"7"
233,254,222,123,198,92,245,76,2,"7"
247,94,121,204,243,126,243,126,2,"7"
230,186,58,23,255,222,88,210,2,"7"
250,122,248,126,243,110,243,126,2,"7"
253,90,234,122,88,82,154,222,2,"7"
254,90,254,126,226,126,254,90,2,"7"
253,94,227,168,255,126,231,92,2,"7"
254,122,226,254,90,212,255,126,3,"7"
226,94,251,94,251,126,251,90,3,"7"
230,122,254,94,242,126,110,78,3,"7"
122,207,254,126,234,94,234,94,3,"7"
115,104,250,122,246,94,243,94,3,"7"
249,76,255,90,161,131,62,79,3,"7"
254,94,226,90,230,90,226,126,3,"7"
230,92,255,126,63,79,254,90,3,"7"
251,94,251,122,255,220,63,158,3,"7"
255,122,251,222,239,206,90,250,3,"7"
90,230,94,255,94,250,122,242,3,"7"
94,226,122,226,122,242,110,245,3,"7"
194,251,76,251,90,242,122,250,3,"7"
94,251,220,241,94,241,204,241,3,"7"
90,115,41,155,86,255,126,254,3,"7"
94,230,122,242,94,246,122,243,3,"7"
196,253,122,245,94,253,126,226,3,"7"
206,123,51,255,122,230,126,245,3,"7"
94,226,94,229,122,122,86,255,3,"7"
94,254,78,154,233,159,204,230,3,"7"
38,122,245,126,245,94,247,126,3,"7"
255,126,255,126,253,90,246,122,3,"7"
226,92,158,76,254,122,246,94,3,"7"
154,242,255,90,245,126,230,90,3,"7"
242,90,255,126,250,122,127,126,3,"7"
247,94,246,90,242,204,251,92,3,"7"
250,126,241,122,230,126,59,227,3,"7"
255,92,251,220,191,79,122,251,3,"7"
90,246,126,246,122,230,122,255,3,"7"
220,255,90,245,204,122,122,255,3,"7"
254,86,227,204,252,114,255,114,4,"7"
47,232,86,113,220,113,75,251,4,"7"
118,230,118,246,82,246,92,241,4,"7"
82,241,106,255,118,251,86,253,4,"7"
78,115,22,154,167,86,243,86,4,"7"
226,86,237,206,243,82,230,118,4,"7"
26,149,255,114,246,82,243,160,4,"7"
249,86,251,82,230,134,246,110,4,"7"
251,82,226,164,114,170,250,86,4,"7"
226,114,242,222,254,114,226,114,4,"7"
230,118,246,118,251,114,246,206,4,"7"
243,82,231,86,251,78,253,114,4,"7"
236,82,230,78,59,149,255,114,4,"7"
227,206,254,86,249,86,241,118,4,"7"
232,118,249,118,242,118,227,76,4,"7"
254,114,233,94,62,133,255,204,4,"7"
255,118,241,86,252,86,227,94,4,"7"
59,106,94,181,254,82,236,114,4,"7"
174,170,251,114,246,118,254,86,4,"7"
231,222,43,165,255,114,238,220,4,"7"
255,118,227,86,93,79,251,118,4,"7"
251,114,253,220,253,82,251,118,4,"7"
251,118,251,222,241,86,124,90,4,"7"
255,114,234,78,252,118,251,118,4,"7"
242,204,241,82,251,160,246,94,4,"7"
188,235,254,78,252,86,249,114,4,"7"
246,220,127,26,255,94,254,82,4,"7"
246,110,247,92,254,204,188,26,4,"7"
250,204,94,250,82,107,229,250,4,"7"
114,235,82,246,254,252,82,250,4,"7"
254,114,227,86,242,90,254,88,5,"7"
27,53,86,227,82,255,118,255,5,"7"
86,122,122,255,218,254,86,241,5,"7"
86,254,114,118,246,198,245,86,5,"7"
236,82,91,204,230,238,200,250,5,"7"
216,254,114,238,226,246,200,251,5,"7"
82,242,218,117,94,87,254,86,5,"7"
246,82,251,86,255,86,234,86,5,"7"
121,187,254,86,245,211,255,114,5,"7"
243,216,255,218,253,72,250,118,5,"7"
246,114,253,82,234,114,246,218,5,"7"
250,118,252,82,227,194,246,118,5,"7"
243,82,230,200,247,82,235,82,5,"7"
253,198,79,180,118,242,86,235,5,"7"
114,122,181,255,118,245,114,246,5,"7"
72,255,86,250,78,117,251,251,5,"7"
82,250,82,226,86,191,170,251,5,"7"
88,255,118,243,86,120,59,255,5,"7"
82,251,216,250,82,234,86,234,5,"7"
118,251,58,251,86,238,118,254,5,"7"
82,114,235,118,251,114,246,118,5,"7"
246,74,255,88,255,86,242,200,5,"7"
243,114,181,171,255,86,254,118,5,"7"
238,114,250,86,250,86,255,114,5,"7"
227,118,254,118,90,189,254,88,5,"7"
59,78,255,86,255,128,250,114,5,"7"
240,202,250,74,62,208,255,82,5,"7"
115,251,155,122,255,72,253,114,5,"7"
250,86,255,118,230,82,123,189,5,"7"
255,202,119,87,254,82,242,218,5,"7"
254,126,250,88,155,187,255,122,6,"7"
251,122,79,181,122,254,90,255,6,"7"
90,236,94,251,122,254,94,207,6,"7"
180,200,255,126,239,126,181,245,6,"7"
122,235,126,255,88,254,126,239,6,"7"
90,239,94,235,110,121,86,111,6,"7"
244,94,250,126,246,72,255,90,6,"7"
239,90,251,90,242,202,254,126,6,"7"
251,110,115,106,155,199,90,255,6,"7"
122,235,126,254,218,255,200,254,6,"7"
90,186,181,88,223,27,126,246,6,"7"
126,249,94,245,90,251,122,239,6,"7"
94,227,94,31,245,90,247,126,6,"7"
111,110,247,43,250,94,254,122,6,"7"
235,122,251,72,251,122,127,86,6,"7"
155,171,23,218,90,235,144,255,6,"7"
94,251,90,239,94,250,126,246,6,"7"
178,254,122,249,126,235,122,245,6,"7"
74,251,126,246,122,251,122,241,6,"7"
90,250,218,190,218,122,250,122,6,"7"
249,126,115,203,255,200,251,126,6,"7"
251,126,246,162,126,178,255,126,6,"7"
255,122,239,90,251,94,241,94,6,"7"
242,199,254,126,235,72,59,195,6,"7"
254,90,254,122,255,126,231,90,6,"7"
227,216,250,122,103,106,119,250,6,"7"
254,122,250,200,250,90,254,94,6,"7"
250,122,231,90,227,122,241,216,6,"7"
90,173,71,116,122,231,116,122,6,"7"
254,90,251,94,250,218,255,122,6,"7"
254,90,250,90,253,171,250,126,7,"7"
229,94,226,94,254,122,254,122,7,"7"
253,200,190,173,255,218,255,94,7,"7"
126,246,94,254,90,231,90,251,7,"7"
218,43,244,254,90,251,90,227,7,"7"
94,227,90,227,74,62,197,126,7,"7"
255,126,255,90,231,88,30,254,7,"7"
94,254,216,254,122,234,166,254,7,"7"
126,234,90,254,202,251,90,253,7,"7"
94,234,128,247,216,254,218,250,7,"7"
126,250,254,253,122,247,90,243,7,"7"
90,234,122,246,90,106,238,251,7,"7"
94,255,90,123,165,90,245,126,7,"7"
234,126,251,94,234,122,251,94,7,"7"
238,238,243,139,95,164,94,255,7,"7"
94,250,94,117,171,250,126,234,7,"7"
122,255,126,242,206,158,233,252,7,"7"
94,253,126,255,72,62,222,94,7,"7"
250,122,240,126,255,229,122,235,7,"7"
255,202,255,90,90,165,122,238,7,"7"
90,247,72,245,122,238,90,251,7,"7"
222,255,88,245,126,238,94,255,7,"7"
122,254,202,250,122,255,94,255,7,"7"
94,243,90,79,116,142,114,122,7,"7"
238,90,250,94,123,181,254,94,7,"7"
234,90,242,94,251,126,117,42,7,"7"
255,94,238,122,254,122,238,94,7,"7"
234,166,250,94,234,72,58,117,7,"7"
254,122,235,90,123,163,252,94,7,"7"
252,126,254,216,250,74,250,90,7,"7"
254,216,250,118,241,72,255,82,8,"7"
255,86,227,82,235,121,251,202,8,"7"
246,94,227,134,239,200,252,114,8,"7"
236,114,254,86,246,114,247,82,8,"7"
154,107,114,247,114,227,118,242,8,"7"
132,255,118,255,82,243,118,255,8,"7"
82,244,160,251,204,255,114,251,8,"7"
82,251,82,247,118,231,114,251,8,"7"
176,234,83,254,76,250,86,251,8,"7"
94,255,86,255,86,226,86,244,8,"7"
90,226,94,122,198,126,250,56,8,"7"
251,126,250,122,251,94,231,90,8,"7"
227,122,255,74,243,90,251,222,8,"7"
246,122,243,126,154,244,255,90,8,"7"
251,74,250,126,250,218,143,36,8,"7"
94,247,82,227,78,58,10,254,8,"7"
222,114,251,114,246,86,250,106,8,"7"
250,118,250,95,255,114,231,94,8,"7"
175,107,244,122,254,90,226,122,8,"7"
250,126,243,122,250,90,243,94,8,"7"
190,249,250,94,254,134,241,122,8,"7"
238,90,247,90,253,94,254,94,8,"7"
242,122,255,122,176,226,180,113,8,"7"
250,122,247,90,230,88,250,216,8,"7"
250,126,230,126,233,78,250,122,8,"7"
230,90,250,90,249,94,230,132,8,"7"
250,118,244,222,122,233,114,249,8,"7"
76,250,118,250,57,250,82,252,8,"7"
82,244,160,234,222,255,82,249,8,"7"
252,255,118,250,118,230,114,250,8,"7"
254,90,253,126,250,222,61,237,9,"7"
59,1,255,126,251,122,127,126,9,"7"
253,94,234,122,238,94,254,204,9,"7"
245,94,255,122,255,90,178,229,9,"7"
254,94,254,122,250,122,255,90,9,"7"
250,254,242,122,234,126,239,90,9,"7"
107,57,255,94,238,90,250,94,9,"7"
253,92,253,126,236,122,253,90,9,"7"
252,57,254,76,117,57,255,94,9,"7"
255,122,247,122,234,220,252,122,9,"7"
235,132,250,126,251,126,255,164,9,"7"
250,206,253,94,234,222,253,90,9,"7"
240,94,238,90,253,78,252,220,9,"7"
61,173,250,94,250,126,234,122,9,"7"
117,252,255,222,252,126,250,78,9,"7"
247,249,94,255,94,250,126,255,9,"7"
126,255,122,250,238,253,94,250,9,"7"
90,252,90,238,126,247,211,124,9,"7"
57,250,122,251,90,254,254,253,9,"7"
94,242,78,253,122,250,126,255,9,"7"
94,234,166,250,249,250,126,252,9,"7"
126,92,78,126,250,220,253,94,9,"7"
251,126,240,126,250,206,252,90,9,"7"
105,222,252,122,243,94,254,122,9,"7"
234,122,242,94,250,220,253,122,9,"7"
238,164,250,90,243,122,240,206,9,"7"
60,74,94,253,126,243,122,255,9,"7"
204,253,94,250,220,252,90,125,9,"7"
233,62,76,94,247,94,238,90,9,"7"
250,126,255,78,252,90,251,90,9,"7"
254,82,226,94,254,199,86,251,0,"8"
86,254,82,58,187,251,118,247,0,"8"
90,242,86,247,250,186,122,254,0,"8"
118,254,118,243,114,247,114,114,0,"8"
90,118,242,118,251,114,243,82,0,"8"
237,106,251,76,254,82,247,114,0,"8"
254,114,98,90,251,118,241,180,0,"8"
255,94,254,50,254,114,250,82,0,"8"
243,82,237,86,230,114,243,106,0,"8"
241,58,251,92,254,86,230,86,0,"8"
230,86,251,86,250,114,226,82,0,"8"
251,114,243,220,241,105,207,75,0,"8"
86,254,118,247,114,233,82,243,0,"8"
82,247,114,254,211,246,214,79,0,"8"
74,220,243,86,252,118,230,82,0,"8"
247,86,254,118,230,86,226,92,0,"8"
243,114,226,234,254,187,255,114,0,"8"
249,118,230,76,241,86,226,82,0,"8"
236,250,254,204,254,92,254,22,0,"8"
66,86,227,118,254,114,231,126,0,"8"
76,254,82,255,82,251,118,182,0,"8"
83,254,94,254,94,254,214,254,0,"8"
86,255,126,210,255,222,251,78,0,"8"
123,214,206,251,114,231,114,254,0,"8"
118,227,204,91,135,255,114,231,0,"8"
114,243,118,251,174,254,92,123,0,"8"
242,79,107,86,246,114,236,74,0,"8"
251,254,74,246,220,254,214,46,0,"8"
234,76,255,204,251,82,255,82,0,"8"
227,114,174,59,251,204,254,82,0,"8"
254,114,251,118,239,122,254,88,1,"8"
254,86,254,82,239,122,240,114,1,"8"
252,90,253,114,235,82,255,86,1,"8"
253,120,250,118,255,114,242,200,1,"8"
245,218,247,82,234,114,252,118,1,"8"
238,86,57,106,255,86,253,82,1,"8"
255,142,57,122,255,86,235,86,1,"8"
255,114,249,90,249,118,122,216,1,"8"
249,200,251,86,248,86,56,10,1,"8"
255,114,250,114,238,114,239,114,1,"8"
255,82,248,126,176,174,151,237,1,"8"
254,114,247,94,250,114,251,118,1,"8"
254,82,247,86,92,90,255,88,1,"8"
249,86,255,86,249,114,238,86,1,"8"
254,218,246,202,254,114,247,86,1,"8"
254,90,254,82,254,238,240,114,1,"8"
240,118,234,82,234,2,253,86,1,"8"
230,82,225,86,251,82,250,86,1,"8"
250,105,251,82,227,82,250,114,1,"8"
121,106,254,86,254,218,245,114,1,"8"
252,10,255,118,253,126,247,126,1,"8"
255,126,254,90,254,202,240,90,1,"8"
254,72,231,96,90,227,94,234,1,"8"
88,251,122,248,94,251,94,227,1,"8"
172,123,88,254,122,234,202,254,1,"8"
169,143,206,126,251,126,254,122,1,"8"
242,218,255,90,255,94,246,90,1,"8"
254,94,126,246,31,134,90,251,1,"8"
200,255,122,243,200,250,200,90,1,"8"
197,254,90,242,126,255,78,250,1,"8"
86,254,82,189,66,250,82,250,2,"8"
114,253,82,235,90,253,82,250,2,"8"
82,250,114,255,236,250,114,251,2,"8"
200,61,91,250,86,239,118,253,2,"8"
118,250,88,253,86,79,250,118,2,"8"
250,118,253,118,253,106,254,114,2,"8"
239,82,235,114,235,114,234,82,2,"8"
254,213,255,118,235,90,250,82,2,"8"
127,235,255,86,250,118,251,74,2,"8"
254,118,253,114,251,218,250,82,2,"8"
250,114,250,222,242,118,234,218,2,"8"
250,82,250,82,255,118,235,118,2,"8"
235,78,250,82,250,114,251,202,2,"8"
240,82,254,114,239,86,251,74,2,"8"
253,114,245,82,239,218,250,82,2,"8"
253,82,235,82,245,118,125,223,2,"8"
255,86,239,82,254,82,254,118,2,"8"
106,90,250,118,250,118,234,86,2,"8"
251,234,252,86,251,118,250,118,2,"8"
235,82,239,74,42,250,254,118,2,"8"
254,114,251,114,245,238,253,118,2,"8"
255,118,245,82,254,86,240,118,2,"8"
168,79,255,86,240,86,122,74,2,"8"
250,86,252,118,239,86,246,86,2,"8"
250,74,122,77,255,86,163,111,2,"8"
255,118,254,118,255,86,250,86,2,"8"
242,74,23,237,254,118,254,43,2,"8"
255,86,255,86,240,86,239,218,2,"8"
250,218,253,82,253,118,254,114,2,"8"
239,82,125,95,255,114,250,114,2,"8"
254,86,239,118,239,86,235,118,3,"8"
229,86,250,118,255,78,250,86,3,"8"
235,142,250,204,250,82,245,82,3,"8"
255,222,255,86,250,206,254,114,3,"8"
250,114,234,206,243,86,123,206,3,"8"
250,237,251,114,254,222,122,19,3,"8"
255,114,235,118,254,114,239,78,3,"8"
250,78,250,135,94,242,86,235,3,"8"
82,250,86,253,114,253,114,239,3,"8"
82,242,90,254,86,254,122,112,3,"8"
121,255,118,253,114,238,114,250,3,"8"
118,250,86,250,118,234,82,61,3,"8"
94,155,210,255,118,247,118,254,3,"8"
118,247,82,254,82,253,118,247,3,"8"
218,253,118,245,118,250,237,255,3,"8"
114,234,76,253,114,238,86,250,3,"8"
114,236,114,248,86,253,118,238,3,"8"
86,254,138,250,204,247,204,247,3,"8"
92,255,86,238,82,125,90,253,3,"8"
90,189,90,255,88,61,90,255,3,"8"
126,251,90,245,122,251,90,255,3,"8"
90,250,206,62,169,251,126,235,3,"8"
74,189,177,126,254,94,254,94,3,"8"
250,216,253,122,255,216,253,122,3,"8"
242,90,250,107,188,106,254,126,3,"8"
253,126,253,126,251,218,61,106,3,"8"
254,126,238,126,253,94,234,174,3,"8"
254,74,253,122,238,90,247,90,3,"8"
110,110,255,94,255,90,234,90,3,"8"
254,90,254,126,125,148,255,90,3,"8"
254,94,253,90,117,246,28,250,4,"8"
254,122,255,122,247,202,253,122,4,"8"
250,74,250,218,250,168,250,122,4,"8"
250,200,250,90,254,232,245,94,4,"8"
244,168,250,126,247,72,122,40,4,"8"
154,242,254,90,234,94,253,126,4,"8"
244,122,127,41,58,225,254,90,4,"8"
245,90,122,41,254,90,250,90,4,"8"
250,200,247,202,247,218,117,210,4,"8"
255,90,234,22,250,122,238,90,4,"8"
250,90,254,122,250,90,235,200,4,"8"
250,90,254,216,250,254,127,41,4,"8"
59,225,255,90,250,94,255,90,4,"8"
244,78,92,47,255,94,254,90,4,"8"
243,216,253,122,239,216,253,66,4,"8"
253,126,251,126,239,126,250,222,4,"8"
122,57,207,86,254,94,253,126,4,"8"
250,94,235,90,229,202,119,41,4,"8"
59,229,151,107,254,90,235,90,4,"8"
250,126,239,126,255,126,251,126,4,"8"
124,242,143,249,254,122,254,110,4,"8"
252,94,235,126,254,126,250,122,4,"8"
254,122,254,122,235,72,127,74,4,"8"
247,202,253,168,251,90,236,202,4,"8"
255,94,250,126,254,122,116,244,4,"8"
159,250,255,126,252,104,43,107,4,"8"
254,94,239,218,250,126,244,90,4,"8"
239,90,252,216,122,233,254,94,4,"8"
250,200,122,41,254,90,229,122,4,"8"
234,218,250,90,54,225,122,250,4,"8"
78,216,90,254,122,242,122,254,5,"8"
204,254,94,251,90,254,222,158,5,"8"
240,255,94,255,222,255,126,245,5,"8"
185,254,78,254,126,242,126,255,5,"8"
94,242,110,242,92,254,90,240,5,"8"
90,240,222,254,126,243,94,250,5,"8"
126,247,94,254,126,238,172,249,5,"8"
204,246,121,254,126,127,65,254,5,"8"
94,238,94,124,240,122,252,94,5,"8"
234,126,254,76,253,126,230,202,5,"8"
255,94,251,122,251,122,244,126,5,"8"
227,126,231,236,250,126,227,238,5,"8"
250,90,250,90,227,122,253,126,5,"8"
250,126,255,94,191,229,255,122,5,"8"
252,90,227,105,159,238,255,122,5,"8"
255,122,255,90,253,222,255,90,5,"8"
254,90,229,94,254,105,251,92,5,"8"
127,87,251,122,250,126,253,122,5,"8"
255,126,255,126,250,70,254,242,5,"8"
255,126,125,210,255,90,243,122,5,"8"
226,122,226,94,230,126,230,136,5,"8"
244,126,226,122,116,105,62,202,5,"8"
254,122,230,90,254,126,234,94,5,"8"
250,94,232,222,85,195,11,82,5,"8"
122,252,90,250,84,244,122,245,5,"8"
94,254,90,241,126,127,249,159,5,"8"
67,122,234,90,250,94,126,211,5,"8"
245,76,253,90,250,94,58,67,5,"8"
94,240,202,255,90,253,90,255,5,"8"
126,238,126,123,226,254,126,250,5,"8"
254,82,242,86,246,86,254,118,6,"8"
242,206,255,78,154,90,44,49,6,"8"
82,255,222,250,118,247,118,249,6,"8"
86,154,94,255,114,249,82,227,6,"8"
202,247,114,255,82,227,76,250,6,"8"
86,253,114,251,86,255,118,86,6,"8"
255,222,179,2,255,86,247,114,6,"8"
230,114,234,86,226,220,254,114,6,"8"
226,118,251,114,254,101,143,206,6,"8"
118,242,86,242,114,243,114,227,6,"8"
86,253,118,255,86,253,234,255,6,"8"
222,95,48,118,246,118,254,86,6,"8"
231,234,242,114,254,114,242,86,6,"8"
227,206,190,123,251,114,250,234,6,"8"
254,82,254,254,254,114,251,82,6,"8"
246,82,227,204,254,204,254,118,6,"8"
242,118,112,66,251,86,246,86,6,"8"
246,76,255,86,246,114,242,114,6,"8"
254,122,59,128,204,250,82,230,6,"8"
234,251,82,240,94,254,82,249,6,"8"
114,242,114,251,58,251,86,242,6,"8"
78,254,250,251,82,255,118,230,6,"8"
222,254,118,242,118,121,123,255,6,"8"
82,251,118,251,118,242,90,240,6,"8"
206,254,86,246,78,126,114,254,6,"8"
114,226,82,252,82,226,82,246,6,"8"
82,230,82,226,90,241,76,243,6,"8"
82,226,74,249,118,246,114,255,6,"8"
82,230,114,240,82,255,82,240,6,"8"
79,254,204,126,169,250,78,254,6,"8"
254,118,249,114,232,204,249,82,7,"8"
247,76,57,95,143,250,92,249,7,"8"
204,248,114,245,76,248,82,251,7,"8"
82,243,82,242,76,122,58,11,7,"8"
154,92,250,90,250,94,243,94,7,"8"
239,94,250,90,255,122,255,122,7,"8"
239,106,242,33,255,126,235,126,7,"8"
247,94,253,90,250,122,247,90,7,"8"
250,250,253,5,254,76,254,126,7,"8"
122,53,254,126,239,94,247,90,7,"8"
250,90,239,94,250,202,58,39,7,"8"
254,222,26,5,254,94,255,122,7,"8"
255,78,244,94,250,126,239,238,7,"8"
247,74,250,94,250,206,255,206,7,"8"
189,107,250,122,238,90,254,126,7,"8"
236,126,107,122,250,42,255,126,7,"8"
250,94,250,233,251,94,239,90,7,"8"
246,122,123,122,248,94,255,194,7,"8"
15,139,220,247,94,247,126,234,7,"8"
200,253,94,238,76,245,94,238,7,"8"
126,247,107,251,206,255,90,245,7,"8"
94,255,126,244,92,191,194,155,7,"8"
225,255,122,234,238,247,94,246,7,"8"
76,255,90,236,94,247,90,254,7,"8"
94,245,106,252,122,243,90,254,7,"8"
90,126,193,255,94,235,94,255,7,"8"
94,239,94,255,94,243,235,251,7,"8"
94,247,76,190,235,251,76,127,7,"8"
114,126,255,94,227,126,235,76,7,"8"
255,122,239,92,254,171,155,231,7,"8"
254,90,254,94,239,94,254,94,8,"8"
231,122,246,78,249,122,242,206,8,"8"
120,206,255,94,227,206,250,94,8,"8"
252,122,254,90,253,222,254,94,8,"8"
235,174,253,90,254,101,250,206,8,"8"
251,126,251,126,235,94,253,220,8,"8"
251,126,22,206,90,251,94,235,8,"8"
78,254,126,245,220,254,222,181,8,"8"
59,254,90,243,126,247,74,252,8,"8"
86,247,202,254,82,235,114,234,8,"8"
118,240,118,254,82,253,86,243,8,"8"
86,250,114,125,248,166,206,118,8,"8"
255,82,238,86,230,82,255,118,8,"8"
247,82,226,82,246,118,108,1,8,"8"
78,250,118,230,118,251,86,254,8,"8"
114,234,118,246,82,246,114,255,8,"8"
114,88,215,118,253,86,246,202,8,"8"
243,118,230,118,242,114,251,118,8,"8"
227,82,246,114,242,216,122,73,8,"8"
255,82,89,94,255,82,247,86,8,"8"
242,86,254,114,251,202,254,40,8,"8"
251,114,232,114,230,216,255,220,8,"8"
255,94,253,90,242,90,226,122,8,"8"
231,126,255,94,255,238,242,76,8,"8"
126,210,94,227,78,250,90,249,8,"8"
114,250,114,227,114,242,114,227,8,"8"
114,106,99,158,222,82,246,82,8,"8"
227,82,251,82,251,114,242,86,8,"8"
250,114,251,86,230,72,91,219,8,"8"
254,114,250,74,248,74,248,82,8,"8"
254,90,63,103,255,90,253,74,9,"8"
255,94,254,126,255,234,255,94,9,"8"
255,126,254,122,243,88,127,202,9,"8"
250,122,235,218,255,94,255,94,9,"8"
127,254,255,94,254,126,251,122,9,"8"
239,90,191,142,58,222,254,90,9,"8"
250,126,235,126,254,238,255,126,9,"8"
235,200,255,126,239,121,255,88,9,"8"
254,126,126,90,251,126,97,109,9,"8"
255,126,254,126,242,90,254,126,9,"8"
254,126,234,90,238,90,245,94,9,"8"
252,90,254,105,251,94,234,126,9,"8"
254,122,125,63,255,216,245,216,9,"8"
254,90,126,234,253,14,126,250,9,"8"
122,250,90,255,122,246,122,246,9,"8"
90,253,122,250,90,234,122,250,9,"8"
96,103,200,255,122,252,94,240,9,"8"
72,245,126,255,122,234,218,255,9,"8"
94,246,94,253,121,143,214,202,9,"8"
253,94,250,122,236,94,235,122,9,"8"
254,122,235,218,248,200,127,142,9,"8"
79,227,122,125,49,254,90,251,9,"8"
90,226,126,255,90,255,122,106,9,"8"
238,240,90,255,74,255,94,247,9,"8"
90,239,122,255,94,255,94,235,9,"8"
90,253,126,251,200,255,94,127,9,"8"
250,240,126,255,94,254,94,255,9,"8"
126,234,94,254,122,126,90,127,9,"8"
251,79,90,95,14,126,234,126,9,"8"
252,126,255,94,255,94,255,94,9,"8"
254,242,242,214,230,74,121,206,0,"9"
242,226,210,230,210,246,242,242,0,"9"
214,226,242,246,234,61,211,251,0,"9"
242,226,12,243,246,243,246,241,0,"9"
142,251,242,255,246,246,206,255,0,"9"
210,227,210,227,210,223,52,214,0,"9"
255,210,227,30,241,210,230,121,0,"9"
255,246,247,214,242,142,255,242,0,"9"
126,208,252,142,254,214,242,156,0,"9"
250,210,243,14,250,214,254,214,0,"9"
242,206,250,246,227,140,242,210,0,"9"
255,214,246,158,254,214,243,210,0,"9"
230,210,115,57,250,214,253,214,0,"9"
226,250,254,246,246,242,246,140,0,"9"
58,229,255,246,227,242,226,158,0,"9"
255,210,247,246,253,246,231,222,0,"9"
251,14,241,210,242,214,246,242,0,"9"
250,210,234,94,246,246,226,242,0,"9"
246,206,254,246,231,210,242,246,0,"9"
254,214,254,30,255,210,247,156,0,"9"
255,214,227,242,254,214,243,78,0,"9"
240,14,255,210,246,14,127,6,0,"9"
254,210,231,210,251,246,230,214,0,"9"
255,246,255,214,255,214,242,94,0,"9"
115,219,14,255,142,255,142,253,0,"9"
210,247,214,238,246,242,246,251,0,"9"
236,246,210,243,254,253,214,251,0,"9"
242,250,246,245,242,247,214,255,0,"9"
214,253,214,191,238,254,210,246,0,"9"
121,254,214,253,242,236,210,245,0,"9"
254,254,234,154,254,254,250,136,1,"9"
250,222,238,218,234,250,238,238,1,"9"
126,189,250,254,255,152,254,43,1,"9"
251,136,255,254,254,254,251,222,1,"9"
227,154,254,55,62,127,254,254,1,"9"
42,215,255,254,246,222,255,250,1,"9"
238,254,250,26,62,218,250,239,1,"9"
250,252,170,95,123,254,254,254,1,"9"
154,251,218,239,218,242,218,250,1,"9"
218,255,254,255,170,122,43,251,1,"9"
222,249,250,225,250,254,250,241,1,"9"
254,231,222,242,222,239,170,243,1,"9"
251,254,222,239,250,255,136,241,1,"9"
222,255,222,226,254,251,218,122,1,"9"
94,159,170,222,251,250,246,218,1,"9"
249,250,231,218,253,138,254,222,1,"9"
254,222,252,254,246,152,62,139,1,"9"
218,253,250,231,250,242,254,242,1,"9"
136,254,106,251,250,126,74,254,1,"9"
218,230,152,254,250,255,250,251,1,"9"
250,253,136,254,218,226,250,254,1,"9"
254,104,194,250,218,251,238,243,1,"9"
218,230,218,243,222,254,254,246,1,"9"
136,254,254,250,222,246,254,254,1,"9"
222,252,254,47,233,254,222,230,1,"9"
152,126,186,24,254,222,255,254,1,"9"
255,222,254,110,241,218,189,59,1,"9"
254,254,243,251,155,242,222,240,1,"9"
222,218,255,254,230,250,115,75,1,"9"
175,101,218,254,250,255,218,230,1,"9"
254,250,234,78,125,26,31,73,2,"9"
10,195,250,245,222,61,91,254,2,"9"
140,253,28,255,28,255,251,255,2,"9"
250,250,218,253,12,255,254,250,2,"9"
222,250,254,250,232,253,250,253,2,"9"
250,234,202,253,58,250,222,229,2,"9"
222,255,250,238,222,234,78,253,2,"9"
218,249,254,253,250,253,147,172,2,"9"
72,254,12,253,250,255,156,253,2,"9"
250,123,254,255,158,250,142,122,2,"9"
122,254,218,243,250,247,122,251,2,"9"
250,231,140,246,42,255,140,250,2,"9"
254,239,218,245,14,250,250,250,2,"9"
218,122,194,253,222,250,30,122,2,"9"
211,245,250,239,222,244,254,239,2,"9"
250,239,218,244,238,246,250,235,2,"9"
250,254,250,250,123,255,254,254,2,"9"
254,123,254,244,222,244,222,127,2,"9"
94,251,222,251,254,250,28,250,2,"9"
107,254,254,250,59,254,250,239,2,"9"
254,239,254,125,235,254,239,254,2,"9"
251,43,255,250,229,28,247,254,2,"9"
250,218,250,218,254,250,247,123,2,"9"
255,250,254,254,250,14,250,235,2,"9"
94,88,222,235,250,245,254,239,2,"9"
254,181,189,255,222,244,254,235,2,"9"
254,253,254,255,225,255,158,245,2,"9"
30,250,12,250,169,255,222,238,2,"9"
246,250,214,234,136,250,8,250,2,"9"
225,254,242,250,242,254,136,250,2,"9"
248,218,234,24,245,222,234,254,3,"9"
245,222,243,222,126,254,240,24,3,"9"
254,218,254,233,255,222,242,218,3,"9"
247,222,254,218,254,218,232,250,3,"9"
103,154,255,218,249,218,239,250,3,"9"
176,113,251,152,254,222,240,254,3,"9"
239,222,242,24,254,152,254,8,3,"9"
254,8,254,56,255,254,247,222,3,"9"
246,222,242,222,252,250,254,26,3,"9"
255,210,245,138,245,222,246,250,3,"9"
242,234,245,250,243,218,255,218,3,"9"
242,254,250,152,254,8,254,254,3,"9"
254,222,254,218,180,210,246,136,3,"9"
254,222,246,254,230,170,246,122,3,"9"
254,138,243,138,254,222,241,250,3,"9"
243,218,244,218,246,250,246,26,3,"9"
254,210,247,250,226,250,251,218,3,"9"
230,250,252,138,243,250,230,10,3,"9"
241,254,226,136,242,218,234,254,3,"9"
238,222,250,154,247,254,252,222,3,"9"
247,254,234,152,245,254,246,136,3,"9"
254,222,251,250,242,254,247,254,3,"9"
231,218,234,250,242,218,243,78,3,"9"
249,250,121,146,42,215,255,254,3,"9"
246,218,254,250,249,250,238,10,3,"9"
254,218,251,8,255,250,229,126,3,"9"
126,90,254,250,247,250,235,254,3,"9"
242,250,239,250,246,254,255,222,3,"9"
251,250,235,136,254,222,246,222,3,"9"
252,218,254,254,247,78,249,222,3,"9"
254,30,122,156,255,210,242,214,4,"9"
242,210,238,30,250,214,247,142,4,"9"
250,210,250,214,242,242,242,140,4,"9"
250,140,250,246,239,246,231,210,4,"9"
244,246,27,191,255,210,250,210,4,"9"
125,161,210,250,214,250,242,242,4,"9"
210,231,210,251,214,227,14,250,4,"9"
104,251,246,47,162,12,250,246,4,"9"
226,14,251,246,254,242,226,14,4,"9"
250,242,231,234,250,156,250,40,4,"9"
255,214,246,242,231,214,251,140,4,"9"
250,210,227,214,242,214,254,12,4,"9"
250,242,250,158,62,238,255,210,4,"9"
250,242,242,14,250,210,241,214,4,"9"
230,214,127,255,254,214,242,242,4,"9"
242,246,230,168,246,242,246,210,4,"9"
255,246,251,210,226,30,243,214,4,"9"
250,246,244,250,116,67,251,210,4,"9"
244,210,242,12,251,246,226,214,4,"9"
244,214,227,242,250,232,154,61,4,"9"
255,214,250,214,227,246,242,214,4,"9"
242,214,254,210,230,30,250,14,4,"9"
250,246,231,246,244,74,250,14,4,"9"
250,210,254,242,225,206,246,156,4,"9"
255,246,243,210,226,142,250,210,4,"9"
242,160,250,210,242,12,243,210,4,"9"
249,246,226,242,242,222,250,214,4,"9"
236,242,242,142,250,242,246,246,4,"9"
255,214,249,140,115,121,207,37,4,"9"
242,230,242,226,214,242,210,244,4,"9"
254,254,31,250,255,250,252,222,5,"9"
251,222,245,12,154,219,254,218,5,"9"
246,218,241,218,232,250,250,250,5,"9"
255,222,239,250,251,254,239,222,5,"9"
239,14,159,232,254,254,242,254,5,"9"
235,250,250,249,255,218,242,254,5,"9"
126,56,250,222,238,14,189,251,5,"9"
254,250,254,222,240,218,238,14,5,"9"
247,250,254,218,254,156,125,215,5,"9"
174,250,255,222,250,156,253,254,5,"9"
253,254,246,156,253,222,234,254,5,"9"
238,254,125,120,254,218,250,218,5,"9"
240,254,235,218,125,251,253,250,5,"9"
238,156,125,42,70,246,254,250,5,"9"
28,245,218,234,218,250,250,245,5,"9"
14,191,222,251,250,238,12,247,5,"9"
250,119,248,251,254,254,218,246,5,"9"
222,255,156,253,250,254,232,242,5,"9"
222,253,254,235,234,242,218,253,5,"9"
222,255,158,250,222,246,254,239,5,"9"
218,253,222,242,158,125,17,78,5,"9"
15,218,251,222,242,254,234,222,5,"9"
234,254,247,250,253,222,122,22,5,"9"
255,250,235,254,125,117,250,254,5,"9"
247,142,247,250,246,250,251,218,5,"9"
227,158,251,142,251,218,225,250,5,"9"
246,106,246,222,242,254,246,156,5,"9"
250,222,239,14,125,30,254,140,5,"9"
253,250,127,106,255,218,253,218,5,"9"
255,218,253,254,235,218,235,238,5,"9"
254,246,230,246,242,246,230,246,6,"9"
253,214,251,234,246,246,255,94,6,"9"
255,246,255,202,254,242,229,214,6,"9"
242,242,253,210,123,111,254,242,6,"9"
231,210,246,230,250,214,230,246,6,"9"
230,210,253,242,254,210,58,94,6,"9"
255,210,254,242,232,30,255,214,6,"9"
246,210,255,242,231,210,251,210,6,"9"
250,12,255,210,252,41,255,12,6,"9"
125,101,154,180,255,246,255,246,6,"9"
255,158,255,210,254,210,253,28,6,"9"
255,214,253,214,250,234,246,156,6,"9"
255,214,246,242,242,210,255,242,6,"9"
246,214,242,140,255,246,232,246,6,"9"
255,255,151,38,246,242,214,255,6,"9"
142,241,214,255,210,253,242,125,6,"9"
121,254,210,226,222,240,242,246,6,"9"
30,255,210,226,242,226,242,246,6,"9"
158,127,143,207,76,242,253,210,6,"9"
127,156,255,242,255,156,255,242,6,"9"
226,246,242,210,230,206,22,39,6,"9"
210,255,156,127,3,242,255,210,6,"9"
230,214,255,246,253,214,226,14,6,"9"
255,158,241,242,246,242,236,254,6,"9"
243,214,250,214,230,214,255,246,6,"9"
255,140,127,107,47,36,28,255,6,"9"
214,114,253,251,210,226,210,254,6,"9"
210,242,242,252,210,254,246,230,6,"9"
170,255,156,191,253,246,255,214,6,"9"
255,242,226,170,246,242,246,210,6,"9"
254,250,126,94,42,104,86,47,7,"9"
250,253,254,229,254,63,171,255,7,"9"
254,241,254,255,254,255,254,42,7,"9"
73,158,37,222,251,222,230,218,7,"9"
61,203,254,250,253,218,242,254,7,"9"
187,56,31,36,218,242,250,243,7,"9"
218,226,218,245,222,242,158,155,7,"9"
148,254,30,154,202,166,36,156,7,"9"
253,250,253,28,253,218,245,218,7,"9"
246,162,244,218,255,130,253,250,7,"9"
246,254,253,250,245,254,232,218,7,"9"
249,250,230,222,246,218,230,250,7,"9"
251,218,122,223,254,254,253,222,7,"9"
251,254,226,30,253,14,253,142,7,"9"
125,223,254,218,242,162,95,110,7,"9"
255,250,246,254,230,254,253,254,7,"9"
230,156,241,218,250,218,252,218,7,"9"
121,241,223,232,222,255,254,245,7,"9"
250,230,222,244,254,246,142,125,7,"9"
243,254,222,242,138,123,57,254,7,"9"
156,241,222,243,254,230,254,242,7,"9"
254,241,254,246,12,241,185,62,7,"9"
79,255,222,246,156,253,250,242,7,"9"
12,243,254,242,222,246,254,125,7,"9"
11,254,254,242,156,253,218,246,7,"9"
250,125,91,94,211,252,218,243,7,"9"
218,243,250,254,169,255,250,253,7,"9"
254,246,180,238,250,242,218,236,7,"9"
250,242,218,251,218,230,222,121,7,"9"
185,254,254,251,140,125,223,255,7,"9"
254,222,96,58,191,210,254,235,8,"9"
254,250,254,248,222,239,222,233,8,"9"
218,246,250,125,211,255,218,235,8,"9"
250,250,24,255,250,254,24,249,8,"9"
254,245,254,246,254,247,254,115,8,"9"
250,250,222,250,218,124,58,254,8,"9"
250,235,254,230,254,235,90,254,8,"9"
250,254,107,211,253,222,235,222,8,"9"
239,78,248,254,239,254,250,218,8,"9"
253,218,255,250,250,222,253,218,8,"9"
254,218,253,8,61,214,254,250,8,"9"
250,250,122,58,248,250,239,218,8,"9"
252,218,235,26,253,250,239,218,8,"9"
239,126,253,58,248,254,239,254,8,"9"
244,254,254,222,239,250,233,218,8,"9"
239,26,120,247,222,254,238,143,8,"9"
246,222,247,222,254,218,239,206,8,"9"
250,218,250,142,250,213,77,182,8,"9"
10,253,250,235,218,250,218,250,8,"9"
250,250,250,250,154,250,82,255,8,"9"
250,255,250,235,136,255,218,235,8,"9"
250,238,218,251,250,247,218,235,8,"9"
222,255,222,112,78,254,249,222,8,"9"
246,254,235,250,242,136,253,250,8,"9"
254,250,235,234,250,45,248,218,8,"9"
235,10,127,91,254,24,255,222,8,"9"
245,254,255,222,235,222,235,138,8,"9"
126,218,253,254,254,152,245,250,8,"9"
253,250,245,218,233,222,255,254,8,"9"
191,79,207,224,222,255,10,253,8,"9"
254,246,253,246,235,78,244,214,9,"9"
251,210,226,242,245,126,253,210,9,"9"
250,242,255,210,250,246,226,12,9,"9"
241,242,254,14,253,242,253,242,9,"9"
102,238,253,210,230,242,247,14,9,"9"
253,214,230,214,226,242,61,221,9,"9"
255,210,251,214,189,99,246,254,9,"9"
214,227,246,255,214,250,214,241,9,"9"
210,102,126,250,12,253,30,115,9,"9"
42,255,242,253,140,241,242,251,9,"9"
246,253,246,255,214,230,234,250,9,"9"
246,253,246,250,246,255,78,244,9,"9"
242,254,246,61,195,248,156,253,9,"9"
214,226,242,230,246,250,210,226,9,"9"
242,226,246,255,250,253,214,109,9,"9"
142,250,122,249,214,243,210,255,9,"9"
214,254,214,61,205,255,246,250,9,"9"
126,242,210,254,246,254,158,253,9,"9"
210,253,242,243,210,254,138,253,9,"9"
246,242,214,188,251,255,214,125,9,"9"
255,246,251,214,242,210,254,210,9,"9"
254,214,227,210,226,210,189,119,9,"9"
214,247,78,61,199,255,210,227,9,"9"
242,251,242,245,214,231,210,227,9,"9"
210,125,30,255,214,253,170,254,9,"9"
94,242,107,254,214,227,246,255,9,"9"
246,227,242,231,242,61,255,246,9,"9"
245,140,253,210,253,242,242,246,9,"9"
231,214,231,210,253,242,253,246,9,"9"
231,214,253,210,125,255,255,210,9,"9"
254,90,247,86,238,218,254,86,0,"10"
235,82,228,114,238,74,249,118,0,"10"
235,86,99,250,250,118,249,86,0,"10"
251,118,227,118,238,118,238,200,0,"10"
253,86,230,218,245,7,255,86,0,"10"
254,114,235,118,238,114,247,114,0,"10"
253,82,234,86,246,218,78,63,0,"10"
82,247,42,255,114,239,118,249,0,"10"
82,231,82,252,114,243,82,249,0,"10"
82,246,202,41,127,63,54,82,0,"10"
227,82,230,86,227,86,238,86,0,"10"
239,118,239,118,243,216,50,171,0,"10"
254,86,250,82,247,114,235,114,0,"10"
238,114,250,218,250,202,250,235,0,"10"
249,86,255,118,235,226,247,82,0,"10"
238,200,242,86,247,114,250,82,0,"10"
234,82,243,114,247,82,234,72,0,"10"
50,191,255,82,243,218,250,86,0,"10"
244,114,243,90,255,118,255,86,0,"10"
243,86,227,94,127,127,255,82,0,"10"
234,82,255,114,246,218,255,118,0,"10"
231,86,231,86,253,202,63,38,0,"10"
86,226,216,241,114,238,118,226,0,"10"
82,255,86,254,118,239,86,243,0,"10"
202,250,82,242,250,255,82,250,0,"10"
118,238,114,235,82,234,114,238,0,"10"
86,231,118,227,107,249,118,254,0,"10"
82,235,106,246,118,235,200,250,0,"10"
82,235,82,234,202,250,118,242,0,"10"
114,238,74,250,118,230,162,242,0,"10"
254,114,255,235,248,114,252,76,1,"10"
243,82,234,86,246,218,254,86,1,"10"
247,118,254,114,230,220,255,82,1,"10"
226,114,251,204,243,82,245,106,1,"10"
253,118,249,204,254,82,226,78,1,"10"
250,118,251,76,250,82,235,86,1,"10"
255,76,252,118,226,82,254,220,1,"10"
253,86,226,118,250,146,118,238,1,"10"
118,230,114,122,171,40,181,255,1,"10"
82,245,114,250,118,254,118,245,1,"10"
86,122,66,82,253,86,245,220,1,"10"
250,243,255,86,254,86,255,114,1,"10"
247,82,226,86,235,86,177,245,1,"10"
30,215,82,251,206,252,94,253,1,"10"
41,255,114,252,114,227,114,102,1,"10"
42,248,86,252,82,49,43,249,1,"10"
118,254,86,251,86,250,196,250,1,"10"
82,251,118,253,86,248,86,121,1,"10"
75,159,194,86,253,82,254,86,1,"10"
241,114,250,204,251,114,250,78,1,"10"
253,170,248,82,251,222,249,222,1,"10"
243,118,254,204,254,114,255,82,1,"10"
226,118,177,186,255,204,254,86,1,"10"
231,90,250,222,248,94,248,118,1,"10"
254,114,255,222,255,206,250,82,1,"10"
227,82,254,78,250,187,252,118,1,"10"
254,118,255,118,251,94,249,82,1,"10"
250,118,126,251,248,78,248,78,1,"10"
255,118,255,128,246,94,250,114,1,"10"
246,86,238,114,241,82,123,106,1,"10"
254,30,244,142,244,142,245,12,2,"10"
186,219,255,90,253,90,241,251,2,"10"
255,142,250,94,255,126,250,126,2,"10"
253,14,250,94,59,203,254,90,2,"10"
244,122,242,132,254,90,239,126,2,"10"
254,94,251,12,254,126,249,94,2,"10"
238,132,255,28,248,142,127,107,2,"10"
255,28,253,94,254,126,247,140,2,"10"
253,126,245,94,245,12,127,78,2,"10"
90,242,90,251,94,230,90,250,2,"10"
158,240,126,254,126,235,166,241,2,"10"
94,240,126,250,126,255,156,242,2,"10"
140,242,122,251,126,253,122,247,2,"10"
94,255,30,254,122,252,164,86,2,"10"
165,255,90,255,142,250,126,240,2,"10"
94,252,90,244,140,245,90,250,2,"10"
126,229,94,234,176,99,140,253,2,"10"
158,253,94,235,28,253,90,230,2,"10"
94,242,126,119,28,254,126,243,2,"10"
12,254,234,254,126,239,90,243,2,"10"
122,251,122,255,90,254,90,254,2,"10"
94,227,126,57,132,126,255,94,2,"10"
254,126,227,126,234,90,239,122,2,"10"
255,90,243,122,253,230,124,253,2,"10"
126,235,126,239,94,255,126,255,2,"10"
12,253,126,226,94,255,94,247,2,"10"
122,231,94,60,90,248,122,227,2,"10"
90,247,94,250,28,253,14,253,2,"10"
94,227,94,240,94,249,126,160,2,"10"
254,255,126,90,251,94,237,122,2,"10"
254,28,121,227,254,254,254,250,3,"10"
251,254,234,254,247,254,232,254,3,"10"
247,218,57,31,254,250,246,158,3,"10"
253,250,250,250,234,218,249,250,3,"10"
247,250,251,142,245,222,112,219,3,"10"
254,222,243,254,176,186,251,222,3,"10"
248,250,234,254,234,250,238,234,3,"10"
117,83,252,218,238,254,253,218,3,"10"
230,234,250,222,242,254,238,250,3,"10"
232,250,246,254,122,102,248,218,3,"10"
251,218,250,218,230,74,253,222,3,"10"
239,250,127,251,251,142,254,251,3,"10"
63,203,254,234,222,239,30,180,3,"10"
122,251,250,244,254,246,222,235,3,"10"
128,254,14,247,222,250,254,251,3,"10"
222,238,222,250,254,111,247,255,3,"10"
254,250,158,126,246,245,250,243,3,"10"
218,230,218,250,250,230,250,230,3,"10"
12,250,142,253,222,254,234,58,3,"10"
208,254,235,222,254,254,255,164,3,"10"
254,254,250,222,251,250,239,250,3,"10"
254,239,255,254,252,156,126,122,3,"10"
250,254,245,254,226,250,241,250,3,"10"
243,254,249,28,125,187,255,254,3,"10"
112,140,255,254,98,250,247,156,3,"10"
245,156,245,222,254,222,234,123,3,"10"
46,80,218,238,218,245,254,226,3,"10"
250,234,250,252,250,251,218,239,3,"10"
140,253,254,238,254,246,250,244,3,"10"
218,230,250,255,250,226,254,241,3,"10"
254,250,186,157,254,254,247,140,4,"10"
255,218,252,156,127,211,252,250,4,"10"
246,250,251,218,246,234,255,250,4,"10"
253,250,246,250,251,254,251,254,4,"10"
242,90,254,254,251,222,227,254,4,"10"
242,222,227,142,120,243,252,218,4,"10"
249,250,102,202,243,254,255,254,4,"10"
255,254,230,254,243,222,242,222,4,"10"
242,158,243,218,246,218,251,14,4,"10"
252,142,253,254,249,222,235,160,4,"10"
254,250,255,218,235,250,255,250,4,"10"
255,218,238,250,238,14,61,167,4,"10"
255,254,250,156,89,211,254,218,4,"10"
246,254,242,222,248,250,248,254,4,"10"
246,222,63,223,254,231,14,253,4,"10"
235,252,222,255,254,231,250,227,4,"10"
218,254,250,253,140,127,59,255,4,"10"
250,229,250,246,234,255,250,255,4,"10"
218,242,250,246,254,227,218,227,4,"10"
250,245,218,255,254,103,202,127,4,"10"
243,255,218,246,218,230,222,231,4,"10"
158,92,135,254,142,249,254,227,4,"10"
254,231,158,142,143,250,250,250,4,"10"
243,250,231,30,252,250,249,218,4,"10"
231,218,227,254,246,250,248,243,4,"10"
254,254,254,218,227,14,127,59,4,"10"
254,254,254,239,250,243,250,106,4,"10"
70,123,94,250,255,250,239,158,4,"10"
250,250,254,14,249,158,251,156,4,"10"
248,106,127,58,159,165,255,254,4,"10"
142,218,218,251,250,222,243,254,5,"10"
247,78,254,250,250,211,254,254,5,"10"
231,132,126,219,251,222,226,218,5,"10"
249,218,251,222,251,250,247,254,5,"10"
255,222,235,78,251,78,245,95,5,"10"
255,222,255,218,255,254,254,250,5,"10"
234,76,250,92,252,254,251,90,5,"10"
253,204,30,218,222,251,220,255,5,"10"
222,235,254,255,218,251,254,255,5,"10"
92,60,10,255,94,253,206,250,5,"10"
138,254,222,246,218,237,218,251,5,"10"
254,253,220,252,254,230,51,250,5,"10"
218,231,122,255,14,255,90,247,5,"10"
142,250,122,254,122,243,126,255,5,"10"
94,106,193,254,90,243,126,26,5,"10"
255,254,94,250,94,239,94,250,5,"10"
122,255,90,42,211,255,94,241,5,"10"
156,255,122,253,35,255,90,250,5,"10"
156,250,94,246,126,250,126,250,5,"10"
126,250,126,250,111,156,100,255,5,"10"
126,230,94,246,94,244,126,247,5,"10"
28,250,94,250,12,122,207,252,5,"10"
122,254,90,119,107,255,126,251,5,"10"
90,254,90,254,90,230,126,250,5,"10"
122,251,234,250,126,254,122,122,5,"10"
95,250,126,254,94,250,122,243,5,"10"
90,226,122,254,122,230,164,251,5,"10"
122,251,94,230,122,254,123,254,5,"10"
94,246,126,230,122,246,126,108,5,"10"
158,245,90,255,122,237,140,250,5,"10"
254,126,231,90,253,90,234,94,6,"10"
51,59,249,122,235,122,253,94,6,"10"
230,196,246,126,250,90,251,94,6,"10"
235,90,250,94,99,107,249,90,6,"10"
255,90,186,103,175,241,126,227,6,"10"
94,251,90,229,90,248,90,126,6,"10"
119,248,126,229,122,230,90,247,6,"10"
126,246,94,244,158,250,30,254,6,"10"
94,254,126,234,156,126,243,248,6,"10"
90,57,116,107,90,122,234,126,6,"10"
254,122,255,126,255,122,254,90,6,"10"
252,126,249,126,255,222,88,223,6,"10"
255,142,254,122,254,140,253,122,6,"10"
255,122,254,126,235,30,249,94,6,"10"
124,28,249,28,253,90,249,90,6,"10"
250,94,246,126,250,90,255,122,6,"10"
249,94,189,102,255,126,226,254,6,"10"
249,94,251,94,234,140,248,94,6,"10"
231,126,57,175,14,254,126,247,6,"10"
126,250,156,250,90,250,126,250,6,"10"
90,224,90,122,119,249,126,255,6,"10"
126,226,94,225,122,250,90,253,6,"10"
74,250,28,248,90,255,14,254,6,"10"
122,249,90,249,94,247,126,239,6,"10"
94,249,122,243,122,143,53,175,6,"10"
95,122,255,122,248,126,231,90,6,"10"
255,90,253,126,251,94,241,90,6,"10"
235,122,235,156,94,230,126,253,6,"10"
90,247,14,255,126,248,122,239,6,"10"
94,239,126,251,94,253,194,23,6,"10"
254,12,250,122,250,122,246,90,7,"10"
247,94,246,142,252,122,243,90,7,"10"
98,234,250,126,250,65,254,94,7,"10"
226,94,244,126,55,59,252,156,7,"10"
250,94,186,206,151,94,94,229,7,"10"
94,245,142,243,142,255,94,251,7,"10"
94,251,140,252,126,230,94,230,7,"10"
160,255,94,254,30,250,231,255,7,"10"
94,254,122,239,126,235,90,254,7,"10"
166,249,122,254,126,254,126,246,7,"10"
202,250,41,255,94,254,126,239,7,"10"
122,247,12,250,90,239,94,255,7,"10"
126,189,198,240,122,255,122,251,7,"10"
122,242,126,233,122,254,122,250,7,"10"
122,255,94,242,30,250,12,188,7,"10"
187,40,127,255,140,243,90,254,7,"10"
122,227,90,254,94,251,122,250,7,"10"
90,188,135,159,230,255,94,251,7,"10"
126,250,90,253,142,247,122,255,7,"10"
122,245,90,238,14,245,94,247,7,"10"
128,254,78,255,122,238,126,249,7,"10"
28,249,90,250,90,230,94,105,7,"10"
86,252,122,239,158,115,58,249,7,"10"
90,231,126,254,94,250,122,231,7,"10"
122,250,126,250,122,227,224,207,7,"10"
119,255,94,230,126,231,126,230,7,"10"
122,250,122,250,12,248,126,227,7,"10"
106,250,90,250,12,250,126,250,7,"10"
122,239,94,254,126,227,122,227,7,"10"
94,252,162,253,87,254,90,255,7,"10"
254,254,234,218,250,222,242,164,8,"10"
254,218,234,222,234,228,251,250,8,"10"
249,222,254,222,255,94,254,254,8,"10"
250,250,226,222,243,250,120,26,8,"10"
159,37,255,222,252,206,252,222,8,"10"
250,222,230,218,254,254,248,206,8,"10"
243,222,98,122,153,79,255,220,8,"10"
253,254,253,222,231,250,241,222,8,"10"
254,254,253,204,127,155,153,169,8,"10"
255,250,253,76,254,222,227,218,8,"10"
231,222,254,250,229,254,189,86,8,"10"
249,222,127,74,249,218,255,222,8,"10"
254,222,227,220,255,250,250,254,8,"10"
246,204,253,212,255,254,242,192,8,"10"
254,47,255,206,254,222,250,250,8,"10"
254,254,231,254,250,92,63,127,8,"10"
255,222,239,222,126,99,248,222,8,"10"
253,254,254,206,255,78,255,222,8,"10"
254,254,99,92,252,218,235,250,8,"10"
125,138,167,103,218,250,222,252,8,"10"
254,226,250,253,254,245,222,254,8,"10"
74,94,101,255,222,255,218,253,8,"10"
254,230,250,253,78,255,218,250,8,"10"
222,126,90,254,218,253,204,255,8,"10"
254,254,204,252,250,254,222,254,8,"10"
254,250,250,230,254,226,204,243,8,"10"
222,56,98,47,228,255,218,253,8,"10"
250,250,222,255,222,254,250,254,8,"10"
250,253,75,248,222,254,222,250,8,"10"
155,255,218,253,222,226,254,247,8,"10"
254,250,251,222,251,254,226,218,9,"10"
255,222,251,250,119,156,126,234,9,"10"
249,222,255,250,243,222,249,254,9,"10"
238,158,249,250,231,250,119,235,9,"10"
222,129,254,30,250,222,235,142,9,"10"
252,254,226,250,235,254,250,250,9,"10"
166,170,249,254,244,222,254,218,9,"10"
231,14,251,218,254,218,235,250,9,"10"
243,250,247,222,254,218,251,94,9,"10"
116,123,248,222,230,250,254,218,9,"10"
230,142,250,250,254,254,243,250,9,"10"
239,156,254,47,255,254,243,218,9,"10"
250,218,254,254,239,222,254,254,9,"10"
235,218,246,254,158,122,250,41,9,"10"
195,250,242,250,250,250,246,254,9,"10"
239,250,239,222,241,28,254,254,9,"10"
254,250,254,90,250,218,243,250,9,"10"
234,14,252,222,253,218,255,179,9,"10"
249,222,231,222,253,250,249,250,9,"10"
118,250,249,222,254,218,247,250,9,"10"
235,222,235,250,125,237,254,250,9,"10"
228,140,254,222,123,59,248,222,9,"10"
242,142,247,218,227,164,255,30,9,"10"
249,218,230,218,239,222,247,250,9,"10"
240,158,249,254,253,254,254,250,9,"10"
253,250,253,28,120,235,255,250,9,"10"
251,222,119,126,248,222,247,222,9,"10"
249,254,255,254,246,254,251,218,9,"10"
103,90,242,250,240,218,238,156,9,"10"
243,218,246,254,250,222,239,90,9,"10"